202.0,1.7109222051099085e+18,0.46866840731070497,0.3698630136986301,0.24486486486486486,0.4954756664221081,0.5560439560439561,0.4247266610597141,1192.0
203.0,1.710922205119907e+18,0.4556135770234987,0.3972602739726027,0.3124324324324324,0.5133284421618978,0.6065934065934065,0.4339781328847771,1192.0
204.0,1.7109222051299156e+18,0.5234986945169713,0.5159817351598174,0.587027027027027,0.4974321349963316,0.589010989010989,0.46173254835996635,1194.0
205.0,1.7109222051399063e+18,0.43733681462140994,0.3698630136986301,0.2691891891891892,0.48520420640743456,0.5626373626373626,0.42052144659377627,1192.0
206.0,1.7109222051499044e+18,0.47780678851174935,0.3938356164383562,0.24432432432432433,0.5094155050134507,0.6692307692307692,0.45500420521446594,1194.0
207.0,1.7109222051599048e+18,0.4556135770234987,0.3812785388127854,0.2913513513513514,0.5035460992907801,0.621978021978022,0.43650126156433977,1197.0
208.0,1.7109222051699067e+18,0.4621409921671018,0.3881278538812785,0.24432432432432433,0.5143066764490095,0.6362637362637362,0.4280908326324643,1193.0
209.0,1.7109222051799048e+18,0.4765013054830287,0.4029680365296804,0.3362162162162162,0.5069699192956714,0.5868131868131868,0.4558452481076535,1195.0
210.0,1.7109222051899075e+18,0.47127937336814624,0.4269406392694064,0.35945945945945945,0.5035460992907801,0.6087912087912087,0.4289318755256518,1196.0
211.0,1.7109222051999055e+18,0.48172323759791125,0.4075342465753425,0.3389189189189189,0.49082905355832723,0.6428571428571429,0.45248107653490327,1196.0
212.0,1.7109222052099057e+18,0.4608355091383812,0.3698630136986301,0.27837837837837837,0.49620934213744194,0.6054945054945055,0.4432296047098402,1195.0
213.0,1.7109222052199058e+18,0.4556135770234987,0.3778538812785388,0.2583783783783784,0.5018341892883346,0.6065934065934065,0.4247266610597141,1194.0
214.0,1.7109222052299062e+18,0.47389033942558745,0.4018264840182648,0.35621621621621624,0.5011005135730008,0.6054945054945055,0.4289318755256518,1194.0
215.0,1.7109222052399068e+18,0.4725848563968668,0.4052511415525114,0.3318918918918919,0.5069699192956714,0.6142857142857143,0.4373423044575273,1196.0
216.0,1.7109222052499067e+18,0.4765013054830287,0.410958904109589,0.33675675675675676,0.5015896307165566,0.6241758241758242,0.43566021867115223,1195.0
217.0,1.7109222052599073e+18,0.46736292428198434,0.3561643835616438,0.24972972972972973,0.5001222792858889,0.6252747252747253,0.43902439024390244,1196.0
218.0,1.7109222052699077e+18,0.47127937336814624,0.4269406392694064,0.33837837837837836,0.49938860357055515,0.6076923076923076,0.43566021867115223,1196.0
219.0,1.710922205279909e+18,0.4725848563968668,0.4394977168949772,0.37027027027027026,0.5020787478601125,0.6285714285714286,0.4415475189234651,1196.0
220.0,1.7109222052899085e+18,0.5156657963446475,0.5365296803652968,0.547027027027027,0.504279775006114,0.6362637362637362,0.44911690496215306,1194.0
221.0,1.710922205299909e+18,0.47780678851174935,0.3995433789954338,0.3108108108108108,0.5006113964294449,0.6274725274725275,0.4415475189234651,1197.0
222.0,1.7109222053099098e+18,0.4765013054830287,0.408675799086758,0.33513513513513515,0.5030569821472243,0.6296703296703297,0.4381833473507149,1196.0
223.0,1.7109222053199096e+18,0.4765013054830287,0.410958904109589,0.32756756756756755,0.5033015407190022,0.6318681318681318,0.43902439024390244,1195.0
224.0,1.7109222053299108e+18,0.43994778067885115,0.4063926940639269,0.3324324324324324,0.5055025678650037,0.6208791208791209,0.43650126156433977,1194.0
225.0,1.7109222053399155e+18,0.48433420365535246,0.454337899543379,0.3675675675675676,0.5030569821472243,0.634065934065934,0.44575273338940286,1194.0
226.0,1.7109222053499228e+18,0.47127937336814624,0.4349315068493151,0.34756756756756757,0.4986549278552213,0.6230769230769231,0.43650126156433977,1195.0
227.0,1.710922205359919e+18,0.47780678851174935,0.4394977168949772,0.3627027027027027,0.4944974321349963,0.6153846153846154,0.4440706476030278,1194.0
228.0,1.7109222053699267e+18,0.4621409921671018,0.4018264840182648,0.3286486486486486,0.4803130349718758,0.610989010989011,0.4348191757779647,1194.0
229.0,1.7109222053799214e+18,0.47127937336814624,0.408675799086758,0.33513513513513515,0.5057471264367817,0.6318681318681318,0.4415475189234651,1193.0
230.0,1.7109222053899195e+18,0.4908616187989556,0.4292237442922374,0.3291891891891892,0.49205184641721694,0.6087912087912087,0.4415475189234651,1195.0
231.0,1.710922205399919e+18,0.46475195822454307,0.4052511415525114,0.33513513513513515,0.4937637564196625,0.6164835164835165,0.4339781328847771,1192.0
232.0,1.710922205409919e+18,0.48172323759791125,0.4178082191780822,0.34324324324324323,0.5035460992907801,0.6362637362637362,0.4373423044575273,1193.0
233.0,1.7109222054199206e+18,0.47780678851174935,0.4041095890410959,0.3254054054054054,0.4859378821227684,0.6065934065934065,0.46509671993271656,1195.0
234.0,1.7109222054299382e+18,0.4595300261096606,0.3995433789954338,0.3237837837837838,0.48789435069699194,0.6021978021978022,0.45248107653490327,1196.0
235.0,1.7109222054399224e+18,0.46475195822454307,0.4018264840182648,0.31891891891891894,0.4798239178283199,0.6098901098901099,0.43902439024390244,1194.0
236.0,1.7109222054499236e+18,0.4830287206266319,0.4440639269406393,0.36162162162162165,0.5094155050134507,0.6461538461538462,0.43566021867115223,1195.0
237.0,1.7109222054599227e+18,0.4699738903394256,0.4178082191780822,0.33513513513513515,0.4988994864269993,0.6065934065934065,0.4280908326324643,1192.0
238.0,1.710922205469927e+18,0.4765013054830287,0.3995433789954338,0.32756756756756755,0.5172413793103449,0.6494505494505495,0.4440706476030278,1195.0
239.0,1.7109222054799278e+18,0.4765013054830287,0.408675799086758,0.3362162162162162,0.48936170212765956,0.6120879120879121,0.4381833473507149,1196.0
240.0,1.7109222054899192e+18,0.4765013054830287,0.4132420091324201,0.3389189189189189,0.5047688921496698,0.6362637362637362,0.4381833473507149,1194.0
241.0,1.7109222054999235e+18,0.4660574412532637,0.410958904109589,0.3335135135135135,0.5030569821472243,0.6274725274725275,0.43566021867115223,1195.0
242.0,1.7109222055099238e+18,0.47780678851174935,0.4269406392694064,0.34540540540540543,0.5079481535827831,0.6494505494505495,0.4415475189234651,1192.0
243.0,1.7109222055199237e+18,0.4725848563968668,0.4075342465753425,0.3308108108108108,0.5069699192956714,0.6296703296703297,0.4440706476030278,1194.0
244.0,1.7109222055299228e+18,0.47780678851174935,0.4098173515981735,0.3248648648648649,0.48936170212765956,0.6285714285714286,0.4163162321278385,1191.0
245.0,1.7109222055399258e+18,0.4608355091383812,0.4075342465753425,0.32756756756756755,0.49033993641477136,0.5747252747252747,0.3986543313708999,1192.0
246.0,1.710922205549925e+18,0.49738903394255873,0.4223744292237443,0.33135135135135135,0.5138175593054537,0.6274725274725275,0.4449116904962153,1197.0
247.0,1.7109222055599245e+18,0.47127937336814624,0.4235159817351598,0.3464864864864865,0.5023233064318905,0.634065934065934,0.44070647603027757,1194.0
248.0,1.710922205569935e+18,0.47389033942558745,0.4063926940639269,0.3308108108108108,0.5062362435803375,0.6472527472527473,0.44575273338940286,1196.0
249.0,1.7109222055799293e+18,0.47911227154047,0.4155251141552511,0.3427027027027027,0.4969430178527757,0.6175824175824176,0.43902439024390244,1194.0
250.0,1.7109222055899261e+18,0.4804177545691906,0.4360730593607306,0.3567567567567568,0.49816581071166544,0.6417582417582418,0.4255677039529016,1194.0
251.0,1.710922205599925e+18,0.46736292428198434,0.4178082191780822,0.33405405405405403,0.49327463927610665,0.6318681318681318,0.4280908326324643,1192.0
252.0,1.7109222056099256e+18,0.5078328981723238,0.4703196347031963,0.39675675675675676,0.4900953778429934,0.5494505494505495,0.4440706476030278,1197.0
253.0,1.710922205619939e+18,0.45300261096605743,0.4052511415525114,0.3232432432432432,0.5008559550012228,0.6285714285714286,0.42052144659377627,1192.0
254.0,1.7109222056299236e+18,0.45691906005221933,0.2945205479452055,0.22432432432432434,0.5018341892883346,0.6120879120879121,0.4482758620689655,1195.0
255.0,1.7109222056399245e+18,0.43342036553524804,0.3584474885844749,0.27945945945945944,0.4927855221325507,0.4736263736263736,0.3885618166526493,1192.0
256.0,1.710922205649927e+18,0.5195822454308094,0.4600456621004566,0.3497297297297297,0.5074590364392272,0.743956043956044,0.49957947855340623,1194.0
257.0,1.710922205659929e+18,0.46866840731070497,0.3675799086757991,0.37135135135135133,0.4966984592809978,0.6274725274725275,0.4213624894869638,1191.0
258.0,1.710922205669938e+18,0.48172323759791125,0.3904109589041096,0.3318918918918919,0.5101491807287846,0.6637362637362637,0.4348191757779647,1193.0
259.0,1.7109222056799434e+18,0.4869451697127937,0.4737442922374429,0.4481081081081081,0.4771337735387625,0.7351648351648352,0.46509671993271656,1195.0
260.0,1.7109222056899272e+18,0.5026109660574413,0.4360730593607306,0.35783783783783785,0.49229640498899485,0.5307692307692308,0.4280908326324643,1193.0
261.0,1.7109222056999304e+18,0.4556135770234987,0.3801369863013699,0.28,0.5001222792858889,0.5054945054945055,0.4222035323801514,1194.0
262.0,1.7109222057099313e+18,0.4765013054830287,0.4440639269406393,0.42702702702702705,0.5113719735876743,0.6450549450549451,0.4222035323801514,1190.0
263.0,1.71092220572e+18,0.4765013054830287,0.4223744292237443,0.3372972972972973,0.5047688921496698,0.6483516483516484,0.4255677039529016,1194.0
264.0,1.7109222057299348e+18,0.4765013054830287,0.4063926940639269,0.31675675675675674,0.5006113964294449,0.6010989010989011,0.4348191757779647,1194.0
265.0,1.7109222057399345e+18,0.4725848563968668,0.3584474885844749,0.2481081081081081,0.5025678650036683,0.6527472527472528,0.44911690496215306,1195.0
266.0,1.7109222057499487e+18,0.4490861618798956,0.3858447488584475,0.21891891891891893,0.49400831499144043,0.6637362637362637,0.4222035323801514,1192.0
267.0,1.7109222057599375e+18,0.46736292428198434,0.4018264840182648,0.32972972972972975,0.5028124235754463,0.6285714285714286,0.43650126156433977,1195.0
268.0,1.7109222057699098e+18,0.46866840731070497,0.4041095890410959,0.31945945945945947,0.4966984592809978,0.5769230769230769,0.4415475189234651,1197.0
269.0,1.7109222057799122e+18,0.47911227154047,0.4657534246575342,0.3491891891891892,0.5138175593054537,0.5989010989010989,0.4600504625735913,1196.0
270.0,1.7109222057899318e+18,0.4765013054830287,0.4257990867579909,0.3237837837837838,0.49474199070677427,0.5769230769230769,0.42640874684608915,1193.0
271.0,1.7109222057999132e+18,0.48172323759791125,0.3767123287671233,0.2810810810810811,0.4937637564196625,0.6241758241758242,0.4440706476030278,1196.0
272.0,1.7109222058099136e+18,0.4516971279373368,0.3824200913242009,0.3108108108108108,0.49523110785033014,0.5791208791208792,0.4339781328847771,1193.0
273.0,1.7109222058199101e+18,0.46344647519582244,0.3698630136986301,0.2772972972972973,0.5006113964294449,0.6274725274725275,0.45248107653490327,1195.0
274.0,1.7109222058299156e+18,0.46736292428198434,0.4029680365296804,0.2718918918918919,0.49082905355832723,0.5945054945054945,0.4255677039529016,1196.0
275.0,1.7109222058399135e+18,0.4621409921671018,0.430365296803653,0.35135135135135137,0.504524333577892,0.5978021978021978,0.4179983179142136,1196.0
276.0,1.7109222058499118e+18,0.49216710182767626,0.4006849315068493,0.3005405405405405,0.5182196135974566,0.6274725274725275,0.4449116904962153,1195.0
277.0,1.7109222058599414e+18,0.46475195822454307,0.4006849315068493,0.3254054054054054,0.5015896307165566,0.6637362637362637,0.4280908326324643,1193.0
278.0,1.710922205869911e+18,0.5052219321148825,0.4589041095890411,0.32972972972972975,0.5035460992907801,0.667032967032967,0.4465937762825904,1196.0
279.0,1.7109222058799142e+18,0.45822454308093996,0.4018264840182648,0.3232432432432432,0.5025678650036683,0.6252747252747253,0.4314550042052145,1193.0
280.0,1.710922205889943e+18,0.46866840731070497,0.4178082191780822,0.3054054054054054,0.4996331621423331,0.6120879120879121,0.4129520605550883,1193.0
281.0,1.7109222058999188e+18,0.49869451697127937,0.3812785388127854,0.2654054054054054,0.4986549278552213,0.6230769230769231,0.46509671993271656,1196.0
282.0,1.7109222059099144e+18,0.46736292428198434,0.3961187214611872,0.36972972972972973,0.5135730007336757,0.610989010989011,0.4348191757779647,1197.0
283.0,1.7109222059199122e+18,0.49216710182767626,0.4178082191780822,0.4227027027027027,0.5172413793103449,0.7472527472527473,0.4381833473507149,1194.0
284.0,1.7109222059299133e+18,0.5195822454308094,0.4429223744292237,0.30324324324324325,0.4984103692834434,0.6835164835164835,0.4600504625735913,1195.0
285.0,1.710922205939918e+18,0.49738903394255873,0.4748858447488584,0.3345945945945946,0.4971875764245537,0.6615384615384615,0.4339781328847771,1194.0
286.0,1.7109222059499103e+18,0.4177545691906005,0.3607305936073059,0.28594594594594597,0.499877720714111,0.6274725274725275,0.41379310344827586,1192.0
287.0,1.710922205959908e+18,0.5130548302872062,0.3961187214611872,0.32756756756756755,0.5067253607238934,0.6175824175824176,0.4381833473507149,1196.0
288.0,1.7109222059699036e+18,0.5,0.4600456621004566,0.36162162162162165,0.5118610907312301,0.6571428571428571,0.4499579478553406,1194.0
289.0,1.7109222059798702e+18,0.4516971279373368,0.3995433789954338,0.34324324324324323,0.5030569821472243,0.5637362637362637,0.4053826745164003,1190.0
290.0,1.7109222059899082e+18,0.5130548302872062,0.541095890410959,0.5891891891891892,0.5099046221570066,0.689010989010989,0.5306980656013457,1196.0
291.0,1.7109222059999078e+18,0.4765013054830287,0.3812785388127854,0.2735135135135135,0.5037906578625581,0.6571428571428571,0.4188393608074012,1193.0
292.0,1.710922206009905e+18,0.4621409921671018,0.3824200913242009,0.3345945945945946,0.4996331621423331,0.654945054945055,0.45248107653490327,1195.0
293.0,1.7109222060199368e+18,0.48825065274151436,0.3710045662100457,0.2281081081081081,0.5006113964294449,0.6450549450549451,0.4339781328847771,1194.0
294.0,1.7109222060299092e+18,0.4608355091383812,0.3778538812785388,0.2951351351351351,0.5008559550012228,0.6197802197802198,0.43986543313709,1198.0
295.0,1.710922206039934e+18,0.489556135770235,0.4497716894977169,0.34162162162162163,0.5143066764490095,0.6494505494505495,0.44238856181665265,1194.0
296.0,1.7109222060499116e+18,0.5130548302872062,0.4600456621004566,0.4227027027027027,0.5094155050134507,0.6791208791208792,0.4381833473507149,1196.0
297.0,1.7109222060599145e+18,0.5039164490861618,0.4646118721461187,0.3178378378378378,0.5086818292981169,0.656043956043956,0.456686291000841,1194.0
298.0,1.71092220606992e+18,0.4516971279373368,0.3892694063926941,0.3216216216216216,0.49620934213744194,0.5923076923076923,0.41968040370058873,1193.0
299.0,1.7109222060799393e+18,0.5182767624020888,0.4440639269406393,0.40702702702702703,0.5377842993396919,0.6527472527472528,0.4533221194280908,1196.0
300.0,1.7109222060899036e+18,0.4765013054830287,0.4463470319634703,0.3389189189189189,0.49938860357055515,0.6296703296703297,0.45164003364171573,1194.0
301.0,1.7109222060999112e+18,0.48825065274151436,0.4121004566210046,0.32756756756756755,0.5008559550012228,0.6164835164835165,0.4415475189234651,1193.0
302.0,1.7109222061099085e+18,0.4869451697127937,0.4029680365296804,0.3016216216216216,0.4839814135485449,0.6472527472527473,0.44911690496215306,1194.0
303.0,1.7109222061199076e+18,0.48172323759791125,0.341324200913242,0.21513513513513513,0.5059916850085595,0.6307692307692307,0.4634146341463415,1194.0
304.0,1.7109222061299323e+18,0.4699738903394256,0.4372146118721461,0.31891891891891894,0.4800684764000978,0.6054945054945055,0.41042893187552565,1192.0
305.0,1.7109222061399063e+18,0.48172323759791125,0.4121004566210046,0.35783783783783785,0.5015896307165566,0.6175824175824176,0.42977291841883936,1191.0
306.0,1.7109222061499054e+18,0.4595300261096606,0.3710045662100457,0.252972972972973,0.5103937393005625,0.6241758241758242,0.4507989907485282,1193.0
307.0,1.7109222061599025e+18,0.45300261096605743,0.363013698630137,0.30648648648648646,0.49645390070921985,0.5945054945054945,0.42304457527333894,1192.0
308.0,1.7109222061699028e+18,0.46344647519582244,0.4018264840182648,0.3264864864864865,0.49474199070677427,0.589010989010989,0.44238856181665265,1195.0
309.0,1.7109222061799404e+18,0.48172323759791125,0.4063926940639269,0.34486486486486484,0.491807287845439,0.6054945054945055,0.43313708999158956,1193.0
310.0,1.710922206189921e+18,0.46475195822454307,0.3561643835616438,0.2843243243243243,0.5231107850330154,0.6593406593406593,0.43986543313709,1196.0
311.0,1.710922206199902e+18,0.43733681462140994,0.3995433789954338,0.3318918918918919,0.5074590364392272,0.6274725274725275,0.42640874684608915,1192.0
312.0,1.7109222062099105e+18,0.5013054830287206,0.4292237442922374,0.3497297297297297,0.5020787478601125,0.6054945054945055,0.43566021867115223,1197.0
313.0,1.7109222062199124e+18,0.4765013054830287,0.4360730593607306,0.3881081081081081,0.504279775006114,0.6197802197802198,0.4440706476030278,1197.0
314.0,1.7109222062299103e+18,0.48825065274151436,0.4726027397260274,0.43027027027027026,0.5008559550012228,0.6923076923076923,0.4482758620689655,1196.0
315.0,1.71092220623991e+18,0.46475195822454307,0.3858447488584475,0.3178378378378378,0.5111274150158963,0.6142857142857143,0.4558452481076535,1195.0
316.0,1.7109222062499034e+18,0.4660574412532637,0.4246575342465753,0.36324324324324325,0.4944974321349963,0.5769230769230769,0.4247266610597141,1192.0
317.0,1.7109222062599043e+18,0.4464751958224543,0.3858447488584475,0.29783783783783785,0.48495964783565665,0.6153846153846154,0.4255677039529016,1193.0
318.0,1.7109222062699041e+18,0.5130548302872062,0.410958904109589,0.3016216216216216,0.4984103692834434,0.6406593406593407,0.46173254835996635,1196.0
319.0,1.7109222062799368e+18,0.4608355091383812,0.3926940639269406,0.27783783783783783,0.4988994864269993,0.6076923076923076,0.42052144659377627,1192.0
320.0,1.7109222062898857e+18,0.5391644908616188,0.4646118721461187,0.35567567567567565,0.4969430178527757,0.6296703296703297,0.45500420521446594,1197.0
321.0,1.710922206299912e+18,0.45039164490861616,0.3721461187214612,0.28864864864864864,0.5013450721447786,0.6076923076923076,0.45836837678721615,1194.0
322.0,1.7109222063099113e+18,0.4556135770234987,0.4166666666666667,0.3248648648648649,0.5064808021521154,0.5945054945054945,0.41968040370058873,1192.0
323.0,1.71092220631991e+18,0.48825065274151436,0.3858447488584475,0.2691891891891892,0.5091709464416728,0.6538461538461539,0.4592094196804037,1196.0
324.0,1.7109222063299128e+18,0.4608355091383812,0.3789954337899543,0.25891891891891894,0.5011005135730008,0.5714285714285714,0.4289318755256518,1192.0
325.0,1.710922206339912e+18,0.46866840731070497,0.3949771689497717,0.36702702702702705,0.49229640498899485,0.5571428571428572,0.4247266610597141,1193.0
326.0,1.710922206349929e+18,0.4660574412532637,0.3904109589041096,0.32216216216216215,0.5096600635852286,0.7208791208791209,0.4415475189234651,1195.0
327.0,1.7109222063599122e+18,0.47127937336814624,0.3778538812785388,0.2610810810810811,0.4913181707018831,0.6021978021978022,0.4121110176619008,1195.0
328.0,1.710922206369909e+18,0.4425587467362924,0.3401826484018265,0.2281081081081081,0.4996331621423331,0.5978021978021978,0.43566021867115223,1193.0
329.0,1.7109222063799148e+18,0.4621409921671018,0.3675799086757991,0.30324324324324325,0.5037906578625581,0.6285714285714286,0.432296047098402,1191.0
330.0,1.710922206389906e+18,0.4412532637075718,0.3835616438356164,0.31675675675675674,0.5138175593054537,0.6318681318681318,0.4255677039529016,1194.0
331.0,1.7109222063999073e+18,0.47127937336814624,0.4178082191780822,0.3535135135135135,0.49523110785033014,0.6087912087912087,0.4272497897392767,1191.0
332.0,1.71092220640991e+18,0.48825065274151436,0.4394977168949772,0.3675675675675676,0.5025678650036683,0.6692307692307692,0.44911690496215306,1195.0
333.0,1.710922206419912e+18,0.5091383812010444,0.3698630136986301,0.2843243243243243,0.504524333577892,0.5538461538461539,0.4280908326324643,1193.0
334.0,1.710922206429907e+18,0.489556135770235,0.5068493150684932,0.5524324324324325,0.524578136463683,0.6901098901098901,0.4920100925147183,1197.0
335.0,1.710922206439912e+18,0.4608355091383812,0.4063926940639269,0.37351351351351353,0.5152849107361213,0.6230769230769231,0.43566021867115223,1196.0
336.0,1.710922206449922e+18,0.5248041775456919,0.3972602739726027,0.2524324324324324,0.504524333577892,0.6648351648351648,0.45164003364171573,1196.0
337.0,1.7109222064599117e+18,0.46475195822454307,0.3812785388127854,0.32,0.4988994864269993,0.6351648351648351,0.44911690496215306,1195.0
338.0,1.7109222064699085e+18,0.4595300261096606,0.4075342465753425,0.3621621621621622,0.5025678650036683,0.6241758241758242,0.4179983179142136,1193.0
339.0,1.7109222064803817e+18,0.5156657963446475,0.4452054794520548,0.4410810810810811,0.512594766446564,0.6098901098901099,0.45500420521446594,1196.0
340.0,1.7109222064899459e+18,0.43733681462140994,0.3789954337899543,0.292972972972973,0.5177304964539007,0.6373626373626373,0.4381833473507149,1196.0
341.0,1.7109222064999434e+18,0.4451697127937337,0.365296803652968,0.23891891891891892,0.4988994864269993,0.6098901098901099,0.4247266610597141,1192.0
342.0,1.7109222065099182e+18,0.4830287206266319,0.4315068493150685,0.3037837837837838,0.5255563707507949,0.7252747252747253,0.4634146341463415,1194.0
343.0,1.7109222065199163e+18,0.46344647519582244,0.3607305936073059,0.2972972972972973,0.504524333577892,0.6197802197802198,0.4238856181665265,1192.0
344.0,1.7109222065299172e+18,0.4830287206266319,0.432648401826484,0.3643243243243243,0.5113719735876743,0.6538461538461539,0.4432296047098402,1192.0
345.0,1.710922206539924e+18,0.4908616187989556,0.45662100456621,0.44216216216216214,0.5030569821472243,0.6307692307692307,0.4440706476030278,1194.0
346.0,1.7109222065499164e+18,0.4725848563968668,0.3915525114155251,0.3232432432432432,0.48495964783565665,0.654945054945055,0.4306139613120269,1192.0
347.0,1.7109222065599178e+18,0.5104438642297651,0.4132420091324201,0.307027027027027,0.49767669356810956,0.5923076923076923,0.4482758620689655,1196.0
348.0,1.7109222065699174e+18,0.5352480417754569,0.565068493150685,0.547027027027027,0.512350207874786,0.6494505494505495,0.4465937762825904,1194.0
349.0,1.7109222065799283e+18,0.48825065274151436,0.5068493150684932,0.5664864864864865,0.5020787478601125,0.6274725274725275,0.44575273338940286,1194.0
350.0,1.7109222065899382e+18,0.4621409921671018,0.4006849315068493,0.2983783783783784,0.49620934213744194,0.5835164835164836,0.43313708999158956,1195.0
351.0,1.7109222065999214e+18,0.4699738903394256,0.386986301369863,0.33297297297297296,0.5035460992907801,0.6582417582417582,0.4482758620689655,1196.0
352.0,1.7109222066099177e+18,0.4804177545691906,0.3789954337899543,0.29783783783783785,0.4979212521398875,0.6230769230769231,0.4188393608074012,1192.0
353.0,1.7109222066199173e+18,0.4751958224543081,0.4691780821917808,0.3621621621621622,0.5015896307165566,0.5813186813186814,0.407905803195963,1194.0
354.0,1.7109222066299139e+18,0.46866840731070497,0.3904109589041096,0.2762162162162162,0.499877720714111,0.6318681318681318,0.46509671993271656,1198.0
355.0,1.7109222066399173e+18,0.46475195822454307,0.3515981735159817,0.2827027027027027,0.4988994864269993,0.5494505494505495,0.4179983179142136,1194.0
356.0,1.710922206649916e+18,0.45822454308093996,0.3835616438356164,0.25891891891891894,0.47909024211298606,0.554945054945055,0.4238856181665265,1194.0
357.0,1.7109222066599457e+18,0.45039164490861616,0.4463470319634703,0.3816216216216216,0.49474199070677427,0.6318681318681318,0.4339781328847771,1191.0
358.0,1.7109222066699226e+18,0.49869451697127937,0.4098173515981735,0.307027027027027,0.504524333577892,0.6131868131868132,0.45248107653490327,1196.0
359.0,1.710922206679948e+18,0.45822454308093996,0.4212328767123288,0.3518918918918919,0.5035460992907801,0.567032967032967,0.4188393608074012,1192.0
360.0,1.7109222066899323e+18,0.47389033942558745,0.386986301369863,0.30486486486486486,0.495964783565664,0.589010989010989,0.4188393608074012,1193.0
361.0,1.7109222066999168e+18,0.47911227154047,0.4041095890410959,0.40378378378378377,0.5028124235754463,0.6351648351648351,0.4701429772918419,1194.0
362.0,1.710922206709917e+18,0.4660574412532637,0.3812785388127854,0.292972972972973,0.49400831499144043,0.6032967032967033,0.4188393608074012,1190.0
363.0,1.7109222067199186e+18,0.4765013054830287,0.4337899543378995,0.4281081081081081,0.49938860357055515,0.6494505494505495,0.45500420521446594,1196.0
364.0,1.7109222067299264e+18,0.4869451697127937,0.4132420091324201,0.29621621621621624,0.5094155050134507,0.6582417582417582,0.43902439024390244,1196.0
365.0,1.7109222067399206e+18,0.5143603133159269,0.5045662100456622,0.36324324324324325,0.5015896307165566,0.6329670329670329,0.45500420521446594,1196.0
366.0,1.7109222067499535e+18,0.4490861618798956,0.4178082191780822,0.3427027027027027,0.49498654927855223,0.6054945054945055,0.4121110176619008,1194.0
367.0,1.7109222067599235e+18,0.46475195822454307,0.3778538812785388,0.27675675675675676,0.508192712154561,0.6142857142857143,0.4373423044575273,1195.0
368.0,1.7109222067699256e+18,0.46866840731070497,0.3915525114155251,0.3254054054054054,0.5059916850085595,0.6285714285714286,0.4112699747687132,1192.0
369.0,1.7109222067799217e+18,0.47911227154047,0.432648401826484,0.3410810810810811,0.495964783565664,0.5989010989010989,0.4247266610597141,1193.0
370.0,1.710922206789923e+18,0.47780678851174935,0.4509132420091324,0.40594594594594596,0.5172413793103449,0.6604395604395604,0.456686291000841,1194.0
371.0,1.7109222067999206e+18,0.47780678851174935,0.365296803652968,0.22216216216216217,0.47175348495964786,0.589010989010989,0.4415475189234651,1196.0
372.0,1.7109222068099203e+18,0.43342036553524804,0.3732876712328767,0.2648648648648649,0.5006113964294449,0.5626373626373626,0.4188393608074012,1193.0
373.0,1.710922206819924e+18,0.44778067885117495,0.4143835616438356,0.34756756756756757,0.512594766446564,0.6164835164835165,0.4625735912531539,1196.0
374.0,1.7109222068299228e+18,0.4660574412532637,0.4474885844748858,0.4508108108108108,0.49107361213010514,0.6175824175824176,0.43566021867115223,1197.0
375.0,1.7109222068399485e+18,0.48433420365535246,0.4132420091324201,0.35243243243243244,0.5055025678650037,0.656043956043956,0.4440706476030278,1195.0
376.0,1.7109222068499261e+18,0.48172323759791125,0.3321917808219178,0.2610810810810811,0.4913181707018831,0.634065934065934,0.4272497897392767,1193.0
377.0,1.7109222068599258e+18,0.48825065274151436,0.4726027397260274,0.5016216216216216,0.5084372707263389,0.6978021978021978,0.4449116904962153,1195.0
378.0,1.710922206869927e+18,0.4516971279373368,0.4372146118721461,0.36864864864864866,0.5018341892883346,0.6307692307692307,0.4163162321278385,1195.0
379.0,1.7109222068799636e+18,0.47127937336814624,0.4018264840182648,0.31405405405405407,0.5191978478845684,0.6208791208791209,0.4465937762825904,1194.0
380.0,1.710922206889936e+18,0.5026109660574413,0.5011415525114156,0.46594594594594596,0.5077035950110051,0.6296703296703297,0.4314550042052145,1192.0
381.0,1.7109222068999345e+18,0.48825065274151436,0.4817351598173516,0.4610810810810811,0.4954756664221081,0.6274725274725275,0.4558452481076535,1198.0
382.0,1.710922206909929e+18,0.4608355091383812,0.4406392694063927,0.3643243243243243,0.4988994864269993,0.6065934065934065,0.44238856181665265,1195.0
383.0,1.7109222069199258e+18,0.4516971279373368,0.4075342465753425,0.3,0.49767669356810956,0.6164835164835165,0.42304457527333894,1193.0
384.0,1.7109222069299254e+18,0.4556135770234987,0.3926940639269406,0.28540540540540543,0.4988994864269993,0.6098901098901099,0.4280908326324643,1192.0
385.0,1.710922206939926e+18,0.46736292428198434,0.4942922374429224,0.4540540540540541,0.4988994864269993,0.6494505494505495,0.44911690496215306,1196.0
386.0,1.710922206949925e+18,0.4725848563968668,0.4212328767123288,0.3605405405405405,0.5001222792858889,0.6494505494505495,0.43902439024390244,1197.0
387.0,1.7109222069599386e+18,0.4660574412532637,0.365296803652968,0.27783783783783783,0.5052580092932257,0.6329670329670329,0.42640874684608915,1193.0
388.0,1.7109222069699274e+18,0.4830287206266319,0.4029680365296804,0.3621621621621622,0.5101491807287846,0.6835164835164835,0.5004205214465938,1194.0
389.0,1.710922206979955e+18,0.48172323759791125,0.4052511415525114,0.33297297297297296,0.5033015407190022,0.6285714285714286,0.4339781328847771,1189.0
390.0,1.7109222069899366e+18,0.45822454308093996,0.4417808219178082,0.372972972972973,0.499877720714111,0.6153846153846154,0.4280908326324643,1193.0
391.0,1.7109222069998766e+18,0.47780678851174935,0.519406392694064,0.42324324324324325,0.49351919784788456,0.5736263736263736,0.43313708999158956,1193.0
392.0,1.7109222070099151e+18,0.4516971279373368,0.3972602739726027,0.28864864864864864,0.49400831499144043,0.6142857142857143,0.4121110176619008,1192.0
393.0,1.7109222070199155e+18,0.47911227154047,0.4714611872146119,0.4016216216216216,0.5062362435803375,0.6428571428571429,0.42052144659377627,1194.0
394.0,1.71092220702992e+18,0.5182767624020888,0.5057077625570776,0.44324324324324327,0.5001222792858889,0.6021978021978022,0.4432296047098402,1196.0
395.0,1.710922207039929e+18,0.45691906005221933,0.365296803652968,0.3264864864864865,0.5023233064318905,0.5857142857142857,0.4280908326324643,1192.0
396.0,1.7109222070499177e+18,0.46344647519582244,0.3584474885844749,0.31405405405405407,0.48789435069699194,0.610989010989011,0.43566021867115223,1196.0
397.0,1.710922207059924e+18,0.5026109660574413,0.4052511415525114,0.2897297297297297,0.5025678650036683,0.6758241758241759,0.43566021867115223,1195.0
398.0,1.7109222070699154e+18,0.47780678851174935,0.4269406392694064,0.33297297297297296,0.5050134507214478,0.5846153846153846,0.43650126156433977,1195.0
399.0,1.7109222070799424e+18,0.4960835509138381,0.4486301369863014,0.34486486486486484,0.504035216434336,0.6703296703296703,0.4785534062237174,1195.0
400.0,1.7109222070899126e+18,0.48172323759791125,0.4269406392694064,0.3124324324324324,0.5140621178772316,0.6483516483516484,0.45500420521446594,1196.0
401.0,1.7109222070999214e+18,0.5104438642297651,0.5844748858447488,0.5297297297297298,0.495720224993886,0.610989010989011,0.4289318755256518,1194.0
402.0,1.7109222071099167e+18,0.47911227154047,0.3767123287671233,0.2718918918918919,0.4966984592809978,0.634065934065934,0.4440706476030278,1193.0
403.0,1.710922207119917e+18,0.4621409921671018,0.3710045662100457,0.2843243243243243,0.5015896307165566,0.6274725274725275,0.43986543313709,1197.0
404.0,1.7109222071299185e+18,0.4556135770234987,0.3881278538812785,0.307027027027027,0.5079481535827831,0.6098901098901099,0.4314550042052145,1193.0
405.0,1.7109222071399434e+18,0.46475195822454307,0.4554794520547945,0.38756756756756755,0.495720224993886,0.6175824175824176,0.4289318755256518,1193.0
406.0,1.7109222071498862e+18,0.4765013054830287,0.3458904109589041,0.23405405405405405,0.5358278307654684,0.676923076923077,0.4432296047098402,1194.0
407.0,1.7109222071599155e+18,0.48172323759791125,0.4657534246575342,0.37189189189189187,0.5035460992907801,0.6483516483516484,0.4289318755256518,1193.0
408.0,1.7109222071699156e+18,0.4830287206266319,0.4440639269406393,0.34486486486486484,0.5015896307165566,0.6032967032967033,0.4255677039529016,1192.0
409.0,1.7109222071799468e+18,0.46736292428198434,0.4063926940639269,0.28594594594594597,0.5094155050134507,0.6527472527472528,0.4449116904962153,1195.0
410.0,1.7109222071899215e+18,0.49869451697127937,0.4417808219178082,0.32972972972972975,0.4979212521398875,0.5637362637362637,0.4415475189234651,1194.0
411.0,1.7109222071999145e+18,0.4608355091383812,0.3812785388127854,0.2935135135135135,0.5015896307165566,0.6175824175824176,0.4625735912531539,1193.0
412.0,1.7109222072099274e+18,0.4869451697127937,0.408675799086758,0.2562162162162162,0.4966984592809978,0.6252747252747253,0.4339781328847771,1193.0
413.0,1.710922207219918e+18,0.5,0.4874429223744292,0.4027027027027027,0.504035216434336,0.6362637362637362,0.43313708999158956,1193.0
414.0,1.710922207229919e+18,0.43733681462140994,0.3915525114155251,0.3124324324324324,0.5187087307410124,0.6582417582417582,0.4465937762825904,1197.0
415.0,1.7109222072399173e+18,0.4934725848563969,0.3995433789954338,0.31027027027027027,0.5057471264367817,0.6076923076923076,0.432296047098402,1193.0
416.0,1.710922207249922e+18,0.4516971279373368,0.4121004566210046,0.34702702702702704,0.5128393250183418,0.6417582417582418,0.4381833473507149,1196.0
417.0,1.7109222072599188e+18,0.5026109660574413,0.4634703196347032,0.33297297297297296,0.5008559550012228,0.6208791208791209,0.4735071488645921,1193.0
418.0,1.710922207269919e+18,0.4621409921671018,0.4349315068493151,0.3535135135135135,0.49498654927855223,0.6032967032967033,0.43313708999158956,1192.0
419.0,1.7109222072799583e+18,0.5182767624020888,0.4611872146118721,0.38324324324324327,0.5025678650036683,0.6197802197802198,0.45500420521446594,1197.0
420.0,1.710922207289938e+18,0.4451697127937337,0.3515981735159817,0.25675675675675674,0.5025678650036683,0.6065934065934065,0.4222035323801514,1192.0
421.0,1.7109222072999145e+18,0.43733681462140994,0.3778538812785388,0.26594594594594595,0.504035216434336,0.610989010989011,0.4179983179142136,1194.0
422.0,1.7109222073099185e+18,0.45822454308093996,0.3767123287671233,0.26054054054054054,0.5013450721447786,0.6296703296703297,0.4507989907485282,1193.0
423.0,1.710922207319915e+18,0.4699738903394256,0.3812785388127854,0.27297297297297296,0.5067253607238934,0.5824175824175825,0.4440706476030278,1193.0
424.0,1.7109222073299182e+18,0.4164490861618799,0.319634703196347,0.24162162162162162,0.49351919784788456,0.6351648351648351,0.4499579478553406,1195.0
425.0,1.710922207339925e+18,0.4386422976501306,0.3447488584474886,0.27837837837837837,0.499877720714111,0.5791208791208792,0.4314550042052145,1193.0
426.0,1.7109222073499223e+18,0.47780678851174935,0.3812785388127854,0.32594594594594595,0.49620934213744194,0.610989010989011,0.4348191757779647,1199.0
427.0,1.7109222073599153e+18,0.4516971279373368,0.4052511415525114,0.30594594594594593,0.5074590364392272,0.6230769230769231,0.42304457527333894,1194.0
428.0,1.7109222073699192e+18,0.47911227154047,0.4337899543378995,0.3691891891891892,0.5015896307165566,0.6329670329670329,0.415475189234651,1192.0
429.0,1.7109222073799237e+18,0.45039164490861616,0.3984018264840183,0.372972972972973,0.4803130349718758,0.6175824175824176,0.4440706476030278,1196.0
430.0,1.710922207389923e+18,0.45691906005221933,0.3356164383561644,0.1908108108108108,0.48618244069454636,0.6131868131868132,0.4499579478553406,1194.0
431.0,1.7109222073999212e+18,0.4516971279373368,0.3904109589041096,0.34216216216216216,0.5023233064318905,0.5989010989010989,0.4213624894869638,1192.0
432.0,1.710922207409915e+18,0.4595300261096606,0.3812785388127854,0.28216216216216217,0.5079481535827831,0.6538461538461539,0.44238856181665265,1195.0
433.0,1.710922207419912e+18,0.4830287206266319,0.4406392694063927,0.312972972972973,0.49082905355832723,0.6505494505494506,0.4381833473507149,1197.0
434.0,1.7109222074299164e+18,0.48172323759791125,0.4828767123287671,0.3621621621621622,0.5006113964294449,0.6230769230769231,0.4222035323801514,1193.0
435.0,1.7109222074399168e+18,0.47127937336814624,0.3458904109589041,0.24756756756756756,0.5189532893127904,0.6175824175824176,0.4415475189234651,1195.0
436.0,1.7109222074499425e+18,0.47389033942558745,0.4200913242009132,0.3816216216216216,0.5050134507214478,0.6472527472527473,0.4415475189234651,1195.0
437.0,1.710922207459935e+18,0.4490861618798956,0.3812785388127854,0.27513513513513516,0.5020787478601125,0.6054945054945055,0.4381833473507149,1196.0
438.0,1.7109222074699156e+18,0.4869451697127937,0.4132420091324201,0.3124324324324324,0.4979212521398875,0.6,0.4314550042052145,1193.0
439.0,1.7109222074799188e+18,0.47780678851174935,0.4063926940639269,0.32756756756756755,0.5067253607238934,0.6428571428571429,0.44911690496215306,1193.0
440.0,1.7109222074899208e+18,0.45691906005221933,0.4041095890410959,0.32432432432432434,0.48618244069454636,0.5901098901098901,0.4213624894869638,1193.0
441.0,1.7109222074999176e+18,0.49216710182767626,0.521689497716895,0.514054054054054,0.5108828564441183,0.5835164835164836,0.4314550042052145,1192.0
442.0,1.7109222075098767e+18,0.44778067885117495,0.3789954337899543,0.31891891891891894,0.49107361213010514,0.5758241758241758,0.407905803195963,1191.0
443.0,1.71092220751986e+18,0.49216710182767626,0.4440639269406393,0.4,0.5133284421618978,0.6450549450549451,0.456686291000841,1194.0
444.0,1.7109222075298737e+18,0.4699738903394256,0.4509132420091324,0.36864864864864866,0.5074590364392272,0.6450549450549451,0.42304457527333894,1190.0
445.0,1.7109222075398502e+18,0.4621409921671018,0.3755707762557078,0.28054054054054056,0.5143066764490095,0.6296703296703297,0.43986543313709,1196.0
446.0,1.7109222075499167e+18,0.5052219321148825,0.478310502283105,0.4145945945945946,0.5069699192956714,0.667032967032967,0.4222035323801514,1192.0
447.0,1.7109222075599148e+18,0.46736292428198434,0.3961187214611872,0.32432432432432434,0.49938860357055515,0.6197802197802198,0.4507989907485282,1195.0
448.0,1.7109222075699133e+18,0.47127937336814624,0.410958904109589,0.32756756756756755,0.48789435069699194,0.5747252747252747,0.39108494533221194,1192.0
449.0,1.7109222075799173e+18,0.5,0.4018264840182648,0.3037837837837838,0.5106382978723404,0.7021978021978021,0.5071488645920942,1196.0
450.0,1.7109222075899387e+18,0.45822454308093996,0.3972602739726027,0.312972972972973,0.5064808021521154,0.5835164835164836,0.415475189234651,1194.0
451.0,1.710922207600094e+18,0.47127937336814624,0.4075342465753425,0.42162162162162165,0.5059916850085595,0.6450549450549451,0.46761984861227923,1196.0
452.0,1.710922207609931e+18,0.48172323759791125,0.4509132420091324,0.4335135135135135,0.5057471264367817,0.6285714285714286,0.4432296047098402,1195.0
453.0,1.7109222076199201e+18,0.4869451697127937,0.363013698630137,0.29081081081081084,0.5013450721447786,0.6252747252747253,0.43986543313709,1196.0
454.0,1.7109222076299205e+18,0.4765013054830287,0.384703196347032,0.2935135135135135,0.4844705306921008,0.5846153846153846,0.4255677039529016,1193.0
455.0,1.7109222076399204e+18,0.45300261096605743,0.4463470319634703,0.3621621621621622,0.5079481535827831,0.6153846153846154,0.4112699747687132,1193.0
456.0,1.7109222076499302e+18,0.4490861618798956,0.3789954337899543,0.2827027027027027,0.5003668378576669,0.701098901098901,0.5012615643397813,1194.0
457.0,1.710922207659883e+18,0.46866840731070497,0.410958904109589,0.31891891891891894,0.4888725849841037,0.5945054945054945,0.4062237174095879,1193.0
458.0,1.710922207669917e+18,0.47911227154047,0.4075342465753425,0.30486486486486486,0.504035216434336,0.6483516483516484,0.4499579478553406,1195.0
459.0,1.7109222076799222e+18,0.4765013054830287,0.4143835616438356,0.20972972972972972,0.5023233064318905,0.6175824175824176,0.43650126156433977,1195.0
460.0,1.7109222076899287e+18,0.45691906005221933,0.3995433789954338,0.32432432432432434,0.4886280264123258,0.6307692307692307,0.4179983179142136,1194.0
461.0,1.7109222076999176e+18,0.4621409921671018,0.3858447488584475,0.31513513513513514,0.49033993641477136,0.6208791208791209,0.4306139613120269,1193.0
462.0,1.7109222077099128e+18,0.49477806788511747,0.454337899543379,0.3762162162162162,0.4984103692834434,0.6252747252747253,0.4348191757779647,1191.0
463.0,1.7109222077199204e+18,0.4765013054830287,0.4155251141552511,0.3691891891891892,0.504035216434336,0.6461538461538462,0.4667788057190917,1194.0
464.0,1.7109222077299205e+18,0.48172323759791125,0.4463470319634703,0.4362162162162162,0.5015896307165566,0.6362637362637362,0.4314550042052145,1193.0
465.0,1.710922207739949e+18,0.48825065274151436,0.4863013698630137,0.41081081081081083,0.5091709464416728,0.6461538461538462,0.44911690496215306,1196.0
466.0,1.710922207749921e+18,0.45430809399477806,0.3710045662100457,0.2735135135135135,0.4913181707018831,0.6318681318681318,0.4575273338940286,1193.0
467.0,1.710922207759925e+18,0.46344647519582244,0.4235159817351598,0.4556756756756757,0.4988994864269993,0.5923076923076923,0.43650126156433977,1194.0
468.0,1.710922207769917e+18,0.4490861618798956,0.3949771689497717,0.32,0.49327463927610665,0.5945054945054945,0.42304457527333894,1193.0
469.0,1.7109222077799204e+18,0.4869451697127937,0.3641552511415525,0.28,0.4984103692834434,0.6076923076923076,0.4415475189234651,1193.0
470.0,1.7109222077899476e+18,0.48825065274151436,0.3504566210045662,0.21135135135135136,0.5253118121790169,0.6395604395604395,0.4348191757779647,1195.0
471.0,1.7109222077999286e+18,0.5182767624020888,0.45662100456621,0.3816216216216216,0.5028124235754463,0.6736263736263737,0.46173254835996635,1194.0
472.0,1.7109222078099187e+18,0.48433420365535246,0.4315068493150685,0.4016216216216216,0.4942528735632184,0.6142857142857143,0.44911690496215306,1196.0
473.0,1.7109222078199173e+18,0.4765013054830287,0.4155251141552511,0.3210810810810811,0.5086818292981169,0.6582417582417582,0.4592094196804037,1194.0
474.0,1.710922207829919e+18,0.46866840731070497,0.3778538812785388,0.2654054054054054,0.504524333577892,0.6252747252747253,0.4314550042052145,1194.0
475.0,1.710922207839919e+18,0.489556135770235,0.5045662100456622,0.49405405405405406,0.4986549278552213,0.6274725274725275,0.4415475189234651,1194.0
476.0,1.7109222078499215e+18,0.4765013054830287,0.4041095890410959,0.3027027027027027,0.5020787478601125,0.6010989010989011,0.4432296047098402,1196.0
477.0,1.71092220785992e+18,0.4804177545691906,0.3995433789954338,0.37783783783783786,0.5152849107361213,0.6241758241758242,0.4558452481076535,1195.0
478.0,1.7109222078699174e+18,0.45691906005221933,0.3972602739726027,0.3281081081081081,0.49767669356810956,0.6406593406593407,0.4306139613120269,1193.0
479.0,1.7109222078799217e+18,0.47127937336814624,0.4360730593607306,0.3708108108108108,0.4974321349963316,0.6230769230769231,0.4213624894869638,1192.0
480.0,1.7109222078899438e+18,0.48433420365535246,0.4189497716894977,0.3935135135135135,0.4996331621423331,0.5835164835164836,0.43650126156433977,1196.0
481.0,1.710922207899919e+18,0.49216710182767626,0.3675799086757991,0.29081081081081084,0.5006113964294449,0.6230769230769231,0.4381833473507149,1197.0
482.0,1.7109222079099228e+18,0.47127937336814624,0.3995433789954338,0.29783783783783785,0.5020787478601125,0.6230769230769231,0.4381833473507149,1196.0
483.0,1.710922207919922e+18,0.46475195822454307,0.3984018264840183,0.34216216216216216,0.49938860357055515,0.6417582417582418,0.4575273338940286,1195.0
484.0,1.710922207929921e+18,0.5026109660574413,0.4063926940639269,0.2843243243243243,0.48789435069699194,0.6395604395604395,0.4255677039529016,1192.0
485.0,1.7109222079399214e+18,0.45822454308093996,0.3961187214611872,0.32972972972972975,0.48813890926876985,0.6065934065934065,0.432296047098402,1193.0
486.0,1.7109222079499261e+18,0.489556135770235,0.4429223744292237,0.3081081081081081,0.4988994864269993,0.6054945054945055,0.43313708999158956,1193.0
487.0,1.7109222079599227e+18,0.45300261096605743,0.3995433789954338,0.29945945945945945,0.49620934213744194,0.5967032967032967,0.45836837678721615,1194.0
488.0,1.710922207969919e+18,0.45822454308093996,0.3995433789954338,0.3324324324324324,0.4996331621423331,0.6175824175824176,0.4213624894869638,1192.0
489.0,1.7109222079799242e+18,0.4464751958224543,0.3995433789954338,0.28540540540540543,0.49767669356810956,0.6274725274725275,0.41968040370058873,1193.0
490.0,1.7109222079899256e+18,0.44778067885117495,0.3424657534246575,0.2756756756756757,0.491562729273661,0.6428571428571429,0.4449116904962153,1194.0
491.0,1.7109222079999235e+18,0.5182767624020888,0.4817351598173516,0.4648648648648649,0.504035216434336,0.6417582417582418,0.4507989907485282,1194.0
492.0,1.710922208009918e+18,0.45430809399477806,0.4200913242009132,0.30864864864864866,0.5035460992907801,0.6296703296703297,0.4112699747687132,1193.0
493.0,1.710922208019915e+18,0.47911227154047,0.4805936073059361,0.4448648648648649,0.5015896307165566,0.589010989010989,0.44575273338940286,1196.0
494.0,1.71092220802992e+18,0.489556135770235,0.3550228310502283,0.2810810810810811,0.5113719735876743,0.6483516483516484,0.4558452481076535,1197.0
495.0,1.7109222080399178e+18,0.45822454308093996,0.339041095890411,0.23891891891891892,0.48813890926876985,0.5835164835164836,0.42052144659377627,1193.0
496.0,1.710922208049926e+18,0.46866840731070497,0.4132420091324201,0.3254054054054054,0.5006113964294449,0.6263736263736264,0.432296047098402,1192.0
497.0,1.7109222080599276e+18,0.48825065274151436,0.2853881278538813,0.12432432432432433,0.49620934213744194,0.6252747252747253,0.4415475189234651,1196.0
498.0,1.7109222080699226e+18,0.5182767624020888,0.4600456621004566,0.38594594594594595,0.495964783565664,0.6175824175824176,0.4280908326324643,1192.0
499.0,1.7109222080799232e+18,0.4765013054830287,0.4360730593607306,0.37891891891891893,0.5228662264612375,0.6912087912087912,0.4751892346509672,1194.0
500.0,1.7109222080899459e+18,0.4464751958224543,0.4178082191780822,0.3427027027027027,0.49767669356810956,0.6208791208791209,0.415475189234651,1193.0
501.0,1.710922208099926e+18,0.49216710182767626,0.4189497716894977,0.3232432432432432,0.5160185864514552,0.656043956043956,0.4600504625735913,1194.0
502.0,1.7109222081099182e+18,0.4830287206266319,0.4486301369863014,0.3567567567567568,0.504035216434336,0.6153846153846154,0.4306139613120269,1192.0
503.0,1.7109222081199194e+18,0.4699738903394256,0.4315068493150685,0.36324324324324325,0.4988994864269993,0.6131868131868132,0.4415475189234651,1196.0
504.0,1.710922208129927e+18,0.46475195822454307,0.3961187214611872,0.3497297297297297,0.499877720714111,0.656043956043956,0.4659377628259041,1195.0
505.0,1.7109222081399183e+18,0.4960835509138381,0.4589041095890411,0.39513513513513515,0.4971875764245537,0.5923076923076923,0.4449116904962153,1195.0
506.0,1.710922208149915e+18,0.5052219321148825,0.4726027397260274,0.3621621621621622,0.5059916850085595,0.6593406593406593,0.503784693019344,1195.0
507.0,1.7109222081599173e+18,0.4516971279373368,0.3767123287671233,0.29621621621621624,0.49523110785033014,0.5923076923076923,0.4238856181665265,1192.0
508.0,1.7109222081699195e+18,0.49216710182767626,0.4497716894977169,0.36,0.516507703595011,0.6373626373626373,0.4415475189234651,1196.0
509.0,1.7109222081799186e+18,0.4660574412532637,0.4189497716894977,0.33135135135135135,0.5067253607238934,0.5934065934065934,0.4314550042052145,1192.0
510.0,1.7109222081899146e+18,0.48433420365535246,0.4577625570776256,0.3881081081081081,0.5008559550012228,0.6296703296703297,0.4339781328847771,1192.0
511.0,1.7109222081999114e+18,0.4556135770234987,0.386986301369863,0.3210810810810811,0.4888725849841037,0.6142857142857143,0.44575273338940286,1196.0
512.0,1.7109222082099174e+18,0.5143603133159269,0.5319634703196348,0.5437837837837838,0.5086818292981169,0.6945054945054945,0.4592094196804037,1195.0
513.0,1.710922208219907e+18,0.5052219321148825,0.5182648401826484,0.5410810810810811,0.5140621178772316,0.6406593406593407,0.46846089150546677,1194.0
514.0,1.710922208229907e+18,0.43994778067885115,0.4474885844748858,0.3956756756756757,0.487649792125214,0.6362637362637362,0.41715727502102606,1193.0
515.0,1.7109222082399212e+18,0.40992167101827676,0.363013698630137,0.32756756756756755,0.4979212521398875,0.6186813186813187,0.4432296047098402,1195.0
516.0,1.7109222082499128e+18,0.48433420365535246,0.3641552511415525,0.2843243243243243,0.49351919784788456,0.5967032967032967,0.4465937762825904,1195.0
517.0,1.710922208259907e+18,0.5091383812010444,0.4920091324200913,0.4556756756756757,0.5074590364392272,0.6329670329670329,0.4432296047098402,1194.0
518.0,1.7109222082699023e+18,0.44386422976501305,0.3047945205479452,0.16108108108108107,0.5018341892883346,0.6120879120879121,0.4112699747687132,1193.0
519.0,1.7109222082799235e+18,0.4621409921671018,0.3664383561643836,0.2637837837837838,0.5172413793103449,0.6285714285714286,0.44238856181665265,1196.0
520.0,1.710922208289934e+18,0.49738903394255873,0.4063926940639269,0.2762162162162162,0.48911714355588165,0.6494505494505495,0.456686291000841,1195.0
521.0,1.710922208299905e+18,0.46866840731070497,0.4828767123287671,0.44054054054054054,0.5072144778674492,0.6098901098901099,0.4381833473507149,1196.0
522.0,1.7109222083098993e+18,0.46866840731070497,0.3904109589041096,0.3535135135135135,0.5013450721447786,0.6098901098901099,0.4179983179142136,1191.0
523.0,1.710922208319909e+18,0.47780678851174935,0.4143835616438356,0.34054054054054056,0.49229640498899485,0.6274725274725275,0.45164003364171573,1195.0
524.0,1.7109222083299108e+18,0.48433420365535246,0.3972602739726027,0.34756756756756757,0.5006113964294449,0.6274725274725275,0.4482758620689655,1194.0
525.0,1.7109222083399022e+18,0.4765013054830287,0.365296803652968,0.23189189189189188,0.5057471264367817,0.6483516483516484,0.432296047098402,1192.0
526.0,1.710922208349914e+18,0.4556135770234987,0.3915525114155251,0.2562162162162162,0.5143066764490095,0.5791208791208792,0.40370058873002523,1194.0
527.0,1.7109222083599101e+18,0.47127937336814624,0.3858447488584475,0.2897297297297297,0.4888725849841037,0.5934065934065934,0.4306139613120269,1192.0
528.0,1.7109222083699095e+18,0.46475195822454307,0.4771689497716895,0.37567567567567567,0.5055025678650037,0.5923076923076923,0.4440706476030278,1196.0
529.0,1.7109222083799304e+18,0.44386422976501305,0.3595890410958904,0.2654054054054054,0.49474199070677427,0.6153846153846154,0.4415475189234651,1197.0
530.0,1.7109222083899116e+18,0.47127937336814624,0.4212328767123288,0.4,0.5096600635852286,0.6406593406593407,0.43566021867115223,1196.0
531.0,1.7109222083999096e+18,0.5195822454308094,0.4497716894977169,0.29621621621621624,0.48618244069454636,0.6285714285714286,0.46509671993271656,1196.0
532.0,1.7109222084099108e+18,0.4621409921671018,0.3972602739726027,0.2989189189189189,0.4979212521398875,0.6087912087912087,0.4238856181665265,1194.0
533.0,1.7109222084199053e+18,0.4556135770234987,0.3687214611872146,0.25405405405405407,0.4986549278552213,0.5791208791208792,0.4163162321278385,1195.0
534.0,1.7109222084299016e+18,0.4765013054830287,0.4029680365296804,0.29621621621621624,0.5172413793103449,0.6736263736263737,0.43566021867115223,1198.0
535.0,1.7109222084399022e+18,0.4765013054830287,0.3949771689497717,0.312972972972973,0.5025678650036683,0.6285714285714286,0.4415475189234651,1195.0
536.0,1.7109222084499077e+18,0.4425587467362924,0.4041095890410959,0.37513513513513513,0.5140621178772316,0.6494505494505495,0.43313708999158956,1193.0
537.0,1.7109222084599217e+18,0.49216710182767626,0.4246575342465753,0.34702702702702704,0.5201760821716801,0.6582417582417582,0.4339781328847771,1193.0
538.0,1.7109222084699182e+18,0.47911227154047,0.454337899543379,0.3286486486486486,0.5037906578625581,0.6857142857142857,0.4381833473507149,1197.0
539.0,1.7109222084799276e+18,0.4725848563968668,0.3698630136986301,0.21891891891891893,0.520665199315236,0.6142857142857143,0.4255677039529016,1193.0
540.0,1.7109222084899272e+18,0.5130548302872062,0.4874429223744292,0.39135135135135135,0.512350207874786,0.6450549450549451,0.44575273338940286,1196.0
541.0,1.7109222084999206e+18,0.4660574412532637,0.3858447488584475,0.31891891891891894,0.5018341892883346,0.6230769230769231,0.43566021867115223,1196.0
542.0,1.7109222085099244e+18,0.46344647519582244,0.478310502283105,0.4064864864864865,0.508192712154561,0.6142857142857143,0.4381833473507149,1195.0
543.0,1.7109222085199227e+18,0.47389033942558745,0.3458904109589041,0.1962162162162162,0.5055025678650037,0.6032967032967033,0.4188393608074012,1194.0
544.0,1.7109222085299233e+18,0.4516971279373368,0.3710045662100457,0.2281081081081081,0.520665199315236,0.6428571428571429,0.45500420521446594,1194.0
545.0,1.7109222085399178e+18,0.46475195822454307,0.4098173515981735,0.29621621621621624,0.4812912692589875,0.6153846153846154,0.4306139613120269,1193.0
546.0,1.710922208549919e+18,0.489556135770235,0.4577625570776256,0.35621621621621624,0.49033993641477136,0.5978021978021978,0.4272497897392767,1192.0
547.0,1.710922208559929e+18,0.4386422976501306,0.3664383561643836,0.27405405405405403,0.5020787478601125,0.6208791208791209,0.4693019343986543,1197.0
548.0,1.7109222085699208e+18,0.4765013054830287,0.454337899543379,0.39675675675675676,0.5143066764490095,0.634065934065934,0.4348191757779647,1196.0
549.0,1.710922208579927e+18,0.4608355091383812,0.4075342465753425,0.3005405405405405,0.5001222792858889,0.6230769230769231,0.4339781328847771,1194.0
550.0,1.710922208589922e+18,0.5013054830287206,0.4703196347031963,0.3335135135135135,0.4781120078258743,0.6450549450549451,0.4482758620689655,1195.0
551.0,1.710922208599921e+18,0.47780678851174935,0.4726027397260274,0.37351351351351353,0.4942528735632184,0.6406593406593407,0.4482758620689655,1196.0
552.0,1.7109222086099172e+18,0.4869451697127937,0.4063926940639269,0.3016216216216216,0.49523110785033014,0.6120879120879121,0.43566021867115223,1195.0
553.0,1.7109222086199132e+18,0.4869451697127937,0.386986301369863,0.2654054054054054,0.5035460992907801,0.6175824175824176,0.42640874684608915,1194.0
554.0,1.7109222086299136e+18,0.45822454308093996,0.3687214611872146,0.2691891891891892,0.4979212521398875,0.621978021978022,0.4482758620689655,1197.0
555.0,1.7109222086399137e+18,0.47389033942558745,0.4223744292237443,0.3037837837837838,0.5133284421618978,0.6010989010989011,0.4465937762825904,1195.0
556.0,1.7109222086499195e+18,0.48172323759791125,0.4029680365296804,0.30486486486486486,0.4969430178527757,0.6054945054945055,0.4247266610597141,1194.0
557.0,1.7109222086599245e+18,0.4934725848563969,0.3961187214611872,0.2810810810810811,0.5135730007336757,0.6296703296703297,0.4415475189234651,1196.0
558.0,1.7109222086699167e+18,0.4621409921671018,0.4212328767123288,0.35081081081081084,0.5157740278796772,0.6483516483516484,0.4222035323801514,1193.0
559.0,1.710922208679922e+18,0.4934725848563969,0.3915525114155251,0.27837837837837837,0.5069699192956714,0.6505494505494506,0.46173254835996635,1198.0
560.0,1.7109222086899384e+18,0.46475195822454307,0.3789954337899543,0.28864864864864864,0.49229640498899485,0.5945054945054945,0.4348191757779647,1193.0
561.0,1.710922208699983e+18,0.5013054830287206,0.4280821917808219,0.34864864864864864,0.5108828564441183,0.6450549450549451,0.4432296047098402,1196.0
562.0,1.7109222087099167e+18,0.4765013054830287,0.3767123287671233,0.28216216216216217,0.4925409635607728,0.610989010989011,0.42977291841883936,1189.0
563.0,1.7109222087199165e+18,0.46344647519582244,0.4257990867579909,0.36108108108108106,0.49058449498654927,0.6131868131868132,0.42640874684608915,1194.0
564.0,1.7109222087299167e+18,0.4830287206266319,0.4440639269406393,0.36486486486486486,0.5160185864514552,0.6461538461538462,0.46846089150546677,1195.0
565.0,1.7109222087399173e+18,0.4830287206266319,0.384703196347032,0.31405405405405407,0.504035216434336,0.667032967032967,0.456686291000841,1197.0
566.0,1.7109222087499174e+18,0.47780678851174935,0.3812785388127854,0.24486486486486486,0.49082905355832723,0.6384615384615384,0.464255677039529,1194.0
567.0,1.7109222087599188e+18,0.46475195822454307,0.3812785388127854,0.3162162162162162,0.5067253607238934,0.610989010989011,0.4213624894869638,1193.0
568.0,1.7109222087699187e+18,0.47911227154047,0.4474885844748858,0.3945945945945946,0.5025678650036683,0.6285714285714286,0.42640874684608915,1192.0
569.0,1.710922208779919e+18,0.4765013054830287,0.4257990867579909,0.3427027027027027,0.5157740278796772,0.6274725274725275,0.4373423044575273,1194.0
570.0,1.7109222087899177e+18,0.48172323759791125,0.3778538812785388,0.2810810810810811,0.49816581071166544,0.6098901098901099,0.4440706476030278,1195.0
571.0,1.710922208799924e+18,0.48825065274151436,0.4360730593607306,0.34702702702702704,0.5064808021521154,0.6197802197802198,0.4179983179142136,1192.0
572.0,1.7109222088099208e+18,0.4765013054830287,0.4292237442922374,0.35027027027027025,0.5099046221570066,0.634065934065934,0.4381833473507149,1194.0
573.0,1.7109222088199227e+18,0.4725848563968668,0.4006849315068493,0.28216216216216217,0.5077035950110051,0.6329670329670329,0.4592094196804037,1196.0
574.0,1.7109222088299223e+18,0.4751958224543081,0.4052511415525114,0.3324324324324324,0.5011005135730008,0.6175824175824176,0.4129520605550883,1191.0
575.0,1.7109222088399224e+18,0.49477806788511747,0.4520547945205479,0.3410810810810811,0.5035460992907801,0.6318681318681318,0.4415475189234651,1196.0
576.0,1.710922208849924e+18,0.49738903394255873,0.4429223744292237,0.3935135135135135,0.4991440449987772,0.6164835164835165,0.41968040370058873,1194.0
577.0,1.7109222088599217e+18,0.4556135770234987,0.3961187214611872,0.30864864864864866,0.4986549278552213,0.6362637362637362,0.4465937762825904,1195.0
578.0,1.7109222088699313e+18,0.46475195822454307,0.3778538812785388,0.38,0.49816581071166544,0.6175824175824176,0.4289318755256518,1192.0
579.0,1.7109222088799235e+18,0.47911227154047,0.4178082191780822,0.3518918918918919,0.5140621178772316,0.6692307692307692,0.4693019343986543,1196.0
580.0,1.7109222088899315e+18,0.4804177545691906,0.4200913242009132,0.32432432432432434,0.49400831499144043,0.6263736263736264,0.4188393608074012,1193.0
581.0,1.710922208899922e+18,0.4608355091383812,0.4269406392694064,0.3572972972972973,0.504279775006114,0.656043956043956,0.43650126156433977,1196.0
582.0,1.710922208909902e+18,0.49216710182767626,0.3470319634703196,0.24324324324324326,0.4966984592809978,0.6296703296703297,0.456686291000841,1194.0
583.0,1.7109222089199224e+18,0.45039164490861616,0.3812785388127854,0.26756756756756755,0.483492296404989,0.5967032967032967,0.40706476030277544,1193.0
584.0,1.710922208929922e+18,0.5221932114882507,0.5296803652968036,0.6043243243243244,0.5064808021521154,0.6417582417582418,0.46509671993271656,1196.0
585.0,1.7109222089399232e+18,0.48172323759791125,0.4417808219178082,0.34702702702702704,0.4988994864269993,0.5956043956043956,0.41968040370058873,1192.0
586.0,1.7109222089499067e+18,0.4869451697127937,0.4474885844748858,0.36324324324324325,0.5025678650036683,0.667032967032967,0.4785534062237174,1195.0
587.0,1.710922208959907e+18,0.5,0.5102739726027398,0.35243243243243244,0.5250672536072389,0.6153846153846154,0.415475189234651,1193.0
588.0,1.710922208969907e+18,0.4699738903394256,0.3961187214611872,0.32054054054054054,0.491562729273661,0.5978021978021978,0.415475189234651,1192.0
589.0,1.7109222089798976e+18,0.49477806788511747,0.4372146118721461,0.3545945945945946,0.5128393250183418,0.6186813186813187,0.45836837678721615,1195.0
590.0,1.7109222089899246e+18,0.5130548302872062,0.4771689497716895,0.3302702702702703,0.516507703595011,0.6637362637362637,0.44575273338940286,1196.0
591.0,1.710922208999926e+18,0.4464751958224543,0.3493150684931507,0.252972972972973,0.5133284421618978,0.6164835164835165,0.4272497897392767,1191.0
592.0,1.7109222090099267e+18,0.4464751958224543,0.3595890410958904,0.2524324324324324,0.47248716067498164,0.5912087912087912,0.4314550042052145,1194.0
593.0,1.7109222090199096e+18,0.46866840731070497,0.3744292237442922,0.2508108108108108,0.5094155050134507,0.6329670329670329,0.4280908326324643,1192.0
594.0,1.7109222090299318e+18,0.49738903394255873,0.4954337899543379,0.37675675675675674,0.5037906578625581,0.6395604395604395,0.4373423044575273,1195.0
595.0,1.7109222090399094e+18,0.4856396866840731,0.4189497716894977,0.3708108108108108,0.4930300807043287,0.6032967032967033,0.4280908326324643,1192.0
596.0,1.710922209049908e+18,0.4699738903394256,0.3789954337899543,0.2756756756756757,0.49645390070921985,0.6208791208791209,0.44911690496215306,1195.0
597.0,1.7109222090599078e+18,0.4869451697127937,0.4200913242009132,0.33135135135135135,0.5213988750305698,0.6417582417582418,0.4482758620689655,1197.0
598.0,1.7109222090699105e+18,0.47127937336814624,0.4006849315068493,0.3005405405405405,0.4991440449987772,0.6274725274725275,0.4449116904962153,1192.0
599.0,1.7109222090799117e+18,0.47911227154047,0.4406392694063927,0.38,0.5086818292981169,0.5934065934065934,0.4163162321278385,1192.0
600.0,1.7109222090899113e+18,0.49738903394255873,0.547945205479452,0.6005405405405405,0.504524333577892,0.6637362637362637,0.4693019343986543,1196.0
601.0,1.710922209099911e+18,0.47127937336814624,0.3915525114155251,0.30108108108108106,0.49767669356810956,0.6032967032967033,0.4314550042052145,1194.0
602.0,1.7109222091099384e+18,0.5039164490861618,0.5376712328767124,0.4291891891891892,0.5094155050134507,0.6285714285714286,0.4449116904962153,1194.0
603.0,1.7109222091199114e+18,0.4660574412532637,0.3881278538812785,0.28594594594594597,0.4888725849841037,0.6252747252747253,0.4541631623212784,1196.0
604.0,1.7109222091299338e+18,0.46736292428198434,0.4018264840182648,0.32756756756756755,0.49816581071166544,0.6065934065934065,0.4255677039529016,1190.0
605.0,1.7109222091399068e+18,0.46475195822454307,0.3835616438356164,0.28,0.5191978478845684,0.6527472527472528,0.4465937762825904,1197.0
606.0,1.7109222091499085e+18,0.44386422976501305,0.3767123287671233,0.31351351351351353,0.49351919784788456,0.5835164835164836,0.43566021867115223,1195.0
607.0,1.7109222091599066e+18,0.45822454308093996,0.4098173515981735,0.37405405405405406,0.48911714355588165,0.6230769230769231,0.44238856181665265,1195.0
608.0,1.710922209169907e+18,0.46344647519582244,0.3961187214611872,0.28486486486486484,0.4888725849841037,0.5934065934065934,0.4087468460891506,1192.0
609.0,1.7109222091799135e+18,0.4934725848563969,0.4463470319634703,0.36648648648648646,0.4954756664221081,0.6153846153846154,0.4449116904962153,1194.0
610.0,1.7109222091899133e+18,0.47780678851174935,0.4885844748858447,0.37945945945945947,0.5397407679139153,0.656043956043956,0.4482758620689655,1196.0
611.0,1.7109222091999066e+18,0.47911227154047,0.4474885844748858,0.41567567567567565,0.4954756664221081,0.6296703296703297,0.4440706476030278,1195.0
612.0,1.7109222092099062e+18,0.45691906005221933,0.3778538812785388,0.3254054054054054,0.5055025678650037,0.6384615384615384,0.4062237174095879,1194.0
613.0,1.7109222092199324e+18,0.48433420365535246,0.3710045662100457,0.28486486486486484,0.5037906578625581,0.6384615384615384,0.4726661059714045,1196.0
614.0,1.710922209229907e+18,0.4556135770234987,0.3961187214611872,0.30864864864864866,0.4803130349718758,0.6230769230769231,0.4146341463414634,1194.0
615.0,1.7109222092399148e+18,0.47389033942558745,0.4178082191780822,0.34216216216216216,0.4991440449987772,0.6142857142857143,0.4373423044575273,1195.0
616.0,1.7109222092499075e+18,0.48172323759791125,0.4246575342465753,0.33675675675675676,0.5069699192956714,0.6593406593406593,0.4440706476030278,1195.0
617.0,1.7109222092599063e+18,0.46866840731070497,0.3812785388127854,0.2454054054054054,0.5035460992907801,0.6329670329670329,0.4280908326324643,1193.0
618.0,1.7109222092699064e+18,0.46475195822454307,0.363013698630137,0.24864864864864866,0.5006113964294449,0.6362637362637362,0.43902439024390244,1197.0
619.0,1.710922209279928e+18,0.46344647519582244,0.3812785388127854,0.2864864864864865,0.5025678650036683,0.6197802197802198,0.4289318755256518,1195.0
620.0,1.7109222092899164e+18,0.4804177545691906,0.4143835616438356,0.31135135135135134,0.5011005135730008,0.6010989010989011,0.4381833473507149,1196.0
621.0,1.710922209299905e+18,0.47780678851174935,0.3892694063926941,0.3178378378378378,0.5057471264367817,0.6417582417582418,0.46509671993271656,1195.0
622.0,1.7109222093099064e+18,0.4908616187989556,0.4452054794520548,0.4227027027027027,0.47126436781609193,0.6032967032967033,0.43650126156433977,1192.0
623.0,1.7109222093199498e+18,0.5091383812010444,0.4463470319634703,0.3572972972972973,0.4746881878209831,0.6296703296703297,0.43650126156433977,1194.0
624.0,1.7109222093299156e+18,0.4765013054830287,0.3949771689497717,0.28594594594594597,0.5077035950110051,0.6098901098901099,0.4592094196804037,1195.0
625.0,1.7109222093399127e+18,0.45822454308093996,0.4132420091324201,0.2913513513513514,0.504524333577892,0.6274725274725275,0.42977291841883936,1193.0
626.0,1.7109222093499082e+18,0.49477806788511747,0.410958904109589,0.3037837837837838,0.49327463927610665,0.6318681318681318,0.43902439024390244,1195.0
627.0,1.710922209359909e+18,0.46736292428198434,0.3926940639269406,0.3335135135135135,0.5218879921741257,0.6296703296703297,0.4339781328847771,1194.0
628.0,1.7109222093699067e+18,0.4595300261096606,0.3995433789954338,0.31135135135135134,0.4810467106872096,0.6065934065934065,0.4087468460891506,1192.0
629.0,1.71092220937991e+18,0.49216710182767626,0.4337899543378995,0.31513513513513514,0.5035460992907801,0.6417582417582418,0.47098402018502944,1195.0
630.0,1.7109222093899128e+18,0.47127937336814624,0.4292237442922374,0.3335135135135135,0.49767669356810956,0.6043956043956044,0.4146341463414634,1192.0
631.0,1.7109222093999104e+18,0.4765013054830287,0.4269406392694064,0.38594594594594595,0.4988994864269993,0.6230769230769231,0.45836837678721615,1194.0
632.0,1.7109222094099087e+18,0.47127937336814624,0.4223744292237443,0.3881081081081081,0.5008559550012228,0.6351648351648351,0.43650126156433977,1194.0
633.0,1.710922209419923e+18,0.5065274151436031,0.4817351598173516,0.3908108108108108,0.512350207874786,0.6527472527472528,0.4659377628259041,1193.0
634.0,1.7109222094299095e+18,0.46475195822454307,0.4212328767123288,0.3124324324324324,0.5363169479090242,0.5989010989010989,0.42304457527333894,1192.0
635.0,1.710922209439938e+18,0.5091383812010444,0.4737442922374429,0.4227027027027027,0.4974321349963316,0.6076923076923076,0.45164003364171573,1195.0
636.0,1.7109222094499185e+18,0.4765013054830287,0.3721461187214612,0.23567567567567568,0.5111274150158963,0.6175824175824176,0.4432296047098402,1196.0
637.0,1.7109222094599135e+18,0.47127937336814624,0.365296803652968,0.31891891891891894,0.5037906578625581,0.6351648351648351,0.4449116904962153,1197.0
638.0,1.7109222094699116e+18,0.48433420365535246,0.4406392694063927,0.3891891891891892,0.5094155050134507,0.6582417582417582,0.4499579478553406,1195.0
639.0,1.7109222094799135e+18,0.4699738903394256,0.4121004566210046,0.35243243243243244,0.49400831499144043,0.6428571428571429,0.4575273338940286,1198.0
640.0,1.7109222094899205e+18,0.4464751958224543,0.4223744292237443,0.3956756756756757,0.4810467106872096,0.5923076923076923,0.4222035323801514,1192.0
641.0,1.7109222094999002e+18,0.46736292428198434,0.4052511415525114,0.3227027027027027,0.48495964783565665,0.6032967032967033,0.4247266610597141,1192.0
642.0,1.710922209509898e+18,0.48172323759791125,0.3904109589041096,0.3021621621621622,0.5035460992907801,0.6054945054945055,0.43902439024390244,1195.0
643.0,1.710922209519911e+18,0.5300261096605744,0.6118721461187214,0.5864864864864865,0.533137686475911,0.6714285714285714,0.4693019343986543,1197.0
644.0,1.7109222095299098e+18,0.4490861618798956,0.3698630136986301,0.28054054054054056,0.4969430178527757,0.6197802197802198,0.4146341463414634,1193.0
645.0,1.7109222095399265e+18,0.5274151436031331,0.4143835616438356,0.3216216216216216,0.5011005135730008,0.6296703296703297,0.4415475189234651,1193.0
646.0,1.7109222095499116e+18,0.43733681462140994,0.3995433789954338,0.2891891891891892,0.5020787478601125,0.6296703296703297,0.456686291000841,1195.0
647.0,1.7109222095599107e+18,0.4556135770234987,0.3926940639269406,0.3124324324324324,0.4988994864269993,0.6142857142857143,0.4179983179142136,1194.0
648.0,1.71092220956991e+18,0.4621409921671018,0.3721461187214612,0.2724324324324324,0.5020787478601125,0.6274725274725275,0.4255677039529016,1192.0
649.0,1.710922209579916e+18,0.45822454308093996,0.4098173515981735,0.3037837837837838,0.49523110785033014,0.610989010989011,0.43650126156433977,1197.0
650.0,1.710922209589922e+18,0.49738903394255873,0.4440639269406393,0.34216216216216216,0.504035216434336,0.6582417582417582,0.45248107653490327,1194.0
651.0,1.7109222095999127e+18,0.49216710182767626,0.4052511415525114,0.30864864864864866,0.5160185864514552,0.6098901098901099,0.4188393608074012,1191.0
652.0,1.7109222096099087e+18,0.4608355091383812,0.4200913242009132,0.35081081081081084,0.5015896307165566,0.6230769230769231,0.4592094196804037,1195.0
653.0,1.7109222096199094e+18,0.4725848563968668,0.3710045662100457,0.3237837837837838,0.5001222792858889,0.6395604395604395,0.4507989907485282,1197.0
654.0,1.7109222096299249e+18,0.48433420365535246,0.4703196347031963,0.372972972972973,0.5028124235754463,0.6406593406593407,0.4289318755256518,1195.0
655.0,1.7109222096399104e+18,0.4725848563968668,0.4189497716894977,0.38432432432432434,0.5015896307165566,0.6098901098901099,0.4449116904962153,1195.0
656.0,1.7109222096499092e+18,0.4869451697127937,0.4691780821917808,0.42,0.5025678650036683,0.6450549450549451,0.4432296047098402,1195.0
657.0,1.7109222096599055e+18,0.49216710182767626,0.4726027397260274,0.3783783783783784,0.5055025678650037,0.6098901098901099,0.4558452481076535,1196.0
658.0,1.7109222096699057e+18,0.46475195822454307,0.408675799086758,0.29945945945945945,0.5147957935925654,0.6362637362637362,0.4112699747687132,1192.0
659.0,1.7109222096799096e+18,0.4725848563968668,0.4041095890410959,0.3286486486486486,0.5015896307165566,0.6164835164835165,0.4373423044575273,1195.0
660.0,1.7109222096899144e+18,0.47911227154047,0.4178082191780822,0.35567567567567565,0.5172413793103449,0.6417582417582418,0.43650126156433977,1195.0
661.0,1.7109222096999058e+18,0.49869451697127937,0.4315068493150685,0.37513513513513513,0.4969430178527757,0.667032967032967,0.4634146341463415,1197.0
662.0,1.7109222097099133e+18,0.4464751958224543,0.3321917808219178,0.31405405405405407,0.4969430178527757,0.567032967032967,0.3961312026913373,1192.0
663.0,1.710922209719908e+18,0.4804177545691906,0.4006849315068493,0.3162162162162162,0.5094155050134507,0.6274725274725275,0.4575273338940286,1198.0
664.0,1.7109222097299103e+18,0.4869451697127937,0.4417808219178082,0.34702702702702704,0.5084372707263389,0.6142857142857143,0.4289318755256518,1194.0
665.0,1.710922209739936e+18,0.45822454308093996,0.3664383561643836,0.30486486486486486,0.4991440449987772,0.6384615384615384,0.45164003364171573,1198.0
666.0,1.7109222097499343e+18,0.45822454308093996,0.365296803652968,0.2654054054054054,0.4937637564196625,0.5956043956043956,0.4222035323801514,1192.0
667.0,1.710922209759913e+18,0.5091383812010444,0.5856164383561644,0.6064864864864865,0.5191978478845684,0.6714285714285714,0.46173254835996635,1195.0
668.0,1.7109222097699072e+18,0.45822454308093996,0.4257990867579909,0.3362162162162162,0.49938860357055515,0.6010989010989011,0.4247266610597141,1193.0
669.0,1.7109222097799158e+18,0.4725848563968668,0.5057077625570776,0.4275675675675676,0.5121056493030081,0.6274725274725275,0.44238856181665265,1195.0
670.0,1.7109222097899144e+18,0.4869451697127937,0.476027397260274,0.41567567567567565,0.5035460992907801,0.5978021978021978,0.4238856181665265,1190.0
671.0,1.7109222097999158e+18,0.43994778067885115,0.3219178082191781,0.23567567567567568,0.49498654927855223,0.6318681318681318,0.44575273338940286,1194.0
672.0,1.7109222098099108e+18,0.4556135770234987,0.4372146118721461,0.38,0.4937637564196625,0.6164835164835165,0.4314550042052145,1192.0
673.0,1.7109222098199053e+18,0.5065274151436031,0.4360730593607306,0.34054054054054056,0.49938860357055515,0.6186813186813187,0.44238856181665265,1197.0
674.0,1.710922209829906e+18,0.44778067885117495,0.408675799086758,0.33297297297297296,0.4937637564196625,0.6604395604395604,0.44575273338940286,1196.0
675.0,1.7109222098399137e+18,0.4660574412532637,0.4006849315068493,0.33405405405405403,0.5099046221570066,0.6472527472527473,0.4314550042052145,1193.0
676.0,1.7109222098499113e+18,0.4608355091383812,0.4121004566210046,0.3762162162162162,0.5064808021521154,0.6241758241758242,0.4760302775441548,1197.0
677.0,1.7109222098599094e+18,0.45430809399477806,0.3675799086757991,0.31135135135135134,0.48911714355588165,0.5923076923076923,0.4146341463414634,1191.0
678.0,1.7109222098699095e+18,0.5026109660574413,0.4394977168949772,0.3978378378378378,0.5035460992907801,0.6241758241758242,0.4381833473507149,1194.0
679.0,1.7109222098799158e+18,0.47780678851174935,0.3926940639269406,0.3237837837837838,0.4969430178527757,0.6175824175824176,0.44238856181665265,1193.0
680.0,1.710922209889885e+18,0.4725848563968668,0.4246575342465753,0.3567567567567568,0.504524333577892,0.6285714285714286,0.4306139613120269,1189.0
681.0,1.7109222098999224e+18,0.4608355091383812,0.4315068493150685,0.3902702702702703,0.5015896307165566,0.6208791208791209,0.4415475189234651,1194.0
682.0,1.710922209909918e+18,0.4595300261096606,0.4178082191780822,0.3945945945945946,0.4886280264123258,0.6329670329670329,0.4449116904962153,1194.0
683.0,1.7109222099198546e+18,0.47780678851174935,0.454337899543379,0.39513513513513515,0.49523110785033014,0.6296703296703297,0.43313708999158956,1193.0
684.0,1.7109222099298586e+18,0.46866840731070497,0.3995433789954338,0.29405405405405405,0.5062362435803375,0.6230769230769231,0.4415475189234651,1195.0
685.0,1.7109222099399122e+18,0.47127937336814624,0.4143835616438356,0.28702702702702704,0.4991440449987772,0.6153846153846154,0.4280908326324643,1192.0
686.0,1.7109222099499108e+18,0.4386422976501306,0.3310502283105023,0.20270270270270271,0.508192712154561,0.6318681318681318,0.4146341463414634,1194.0
687.0,1.7109222099599101e+18,0.47780678851174935,0.4474885844748858,0.4118918918918919,0.4842259721203228,0.5868131868131868,0.44238856181665265,1196.0
688.0,1.7109222099699154e+18,0.5026109660574413,0.5125570776255708,0.4410810810810811,0.5133284421618978,0.6318681318681318,0.4381833473507149,1195.0
689.0,1.7109222099799135e+18,0.46344647519582244,0.3744292237442922,0.28864864864864864,0.5003668378576669,0.6285714285714286,0.4373423044575273,1196.0
690.0,1.710922209989921e+18,0.4451697127937337,0.3812785388127854,0.28702702702702704,0.4979212521398875,0.6208791208791209,0.4280908326324643,1193.0
691.0,1.710922209999912e+18,0.5195822454308094,0.454337899543379,0.3427027027027027,0.5035460992907801,0.6296703296703297,0.4482758620689655,1196.0
692.0,1.7109222100099082e+18,0.46475195822454307,0.4029680365296804,0.34594594594594597,0.504524333577892,0.6406593406593407,0.4280908326324643,1196.0
693.0,1.7109222100199104e+18,0.4869451697127937,0.4600456621004566,0.40540540540540543,0.5089263878698949,0.6472527472527473,0.4768713204373423,1197.0
694.0,1.7109222100299113e+18,0.4490861618798956,0.386986301369863,0.3027027027027027,0.5069699192956714,0.6230769230769231,0.4449116904962153,1196.0
695.0,1.7109222100399137e+18,0.48172323759791125,0.4486301369863014,0.3178378378378378,0.4971875764245537,0.6054945054945055,0.4339781328847771,1191.0
696.0,1.7109222100499146e+18,0.47780678851174935,0.4257990867579909,0.3281081081081081,0.49767669356810956,0.6,0.432296047098402,1193.0
697.0,1.710922210059913e+18,0.4856396866840731,0.4589041095890411,0.4416216216216216,0.5108828564441183,0.6252747252747253,0.4440706476030278,1197.0
698.0,1.7109222100698744e+18,0.4830287206266319,0.4041095890410959,0.30486486486486486,0.5067253607238934,0.6736263736263737,0.4592094196804037,1196.0
699.0,1.710922210079909e+18,0.4765013054830287,0.4497716894977169,0.37783783783783786,0.5006113964294449,0.6153846153846154,0.43313708999158956,1192.0
700.0,1.7109222100899205e+18,0.47127937336814624,0.4292237442922374,0.36648648648648646,0.5059916850085595,0.6274725274725275,0.432296047098402,1193.0
701.0,1.7109222100999155e+18,0.45691906005221933,0.3915525114155251,0.3945945945945946,0.495964783565664,0.5681318681318681,0.4213624894869638,1193.0
702.0,1.710922210109913e+18,0.46344647519582244,0.3778538812785388,0.3037837837837838,0.5028124235754463,0.6703296703296703,0.46173254835996635,1194.0
703.0,1.7109222101199158e+18,0.4804177545691906,0.4646118721461187,0.3675675675675676,0.49938860357055515,0.6197802197802198,0.42640874684608915,1194.0
704.0,1.710922210129919e+18,0.46736292428198434,0.3961187214611872,0.2756756756756757,0.4991440449987772,0.6230769230769231,0.44238856181665265,1196.0
705.0,1.7109222101399168e+18,0.46344647519582244,0.3915525114155251,0.3254054054054054,0.5008559550012228,0.6076923076923076,0.43566021867115223,1195.0
706.0,1.710922210149882e+18,0.48172323759791125,0.4200913242009132,0.3021621621621622,0.49474199070677427,0.6175824175824176,0.4314550042052145,1193.0
707.0,1.710922210159906e+18,0.5039164490861618,0.5182648401826484,0.3881081081081081,0.48618244069454636,0.6395604395604395,0.4558452481076535,1197.0
708.0,1.710922210169918e+18,0.4869451697127937,0.4554794520547945,0.38594594594594595,0.504524333577892,0.6296703296703297,0.43566021867115223,1196.0
709.0,1.7109222101799212e+18,0.5248041775456919,0.5468036529680366,0.4772972972972973,0.504035216434336,0.5813186813186814,0.4592094196804037,1195.0
710.0,1.7109222101898865e+18,0.4765013054830287,0.3995433789954338,0.2972972972972973,0.5006113964294449,0.6373626373626373,0.4381833473507149,1197.0
711.0,1.710922210199919e+18,0.4621409921671018,0.4132420091324201,0.37891891891891893,0.49938860357055515,0.5923076923076923,0.4188393608074012,1193.0
712.0,1.7109222102099223e+18,0.48172323759791125,0.4235159817351598,0.35135135135135137,0.5108828564441183,0.6417582417582418,0.4432296047098402,1197.0
713.0,1.710922210219921e+18,0.46736292428198434,0.384703196347032,0.31675675675675674,0.5052580092932257,0.6318681318681318,0.4339781328847771,1193.0
714.0,1.7109222102299156e+18,0.47911227154047,0.3926940639269406,0.2881081081081081,0.4988994864269993,0.6043956043956044,0.4280908326324643,1196.0
715.0,1.7109222102399163e+18,0.46736292428198434,0.3926940639269406,0.2583783783783784,0.49767669356810956,0.656043956043956,0.4440706476030278,1196.0
716.0,1.7109222102499195e+18,0.45822454308093996,0.3789954337899543,0.30864864864864866,0.4988994864269993,0.6648351648351648,0.456686291000841,1195.0
717.0,1.7109222102599204e+18,0.4765013054830287,0.410958904109589,0.3216216216216216,0.5008559550012228,0.6318681318681318,0.42640874684608915,1192.0
718.0,1.7109222102699203e+18,0.5613577023498695,0.6335616438356164,0.6237837837837837,0.5128393250183418,0.6725274725274726,0.4802354920100925,1195.0
719.0,1.710922210279922e+18,0.45691906005221933,0.3824200913242009,0.2989189189189189,0.5147957935925654,0.6175824175824176,0.43566021867115223,1194.0
720.0,1.7109222102899223e+18,0.4804177545691906,0.4041095890410959,0.3254054054054054,0.49523110785033014,0.6032967032967033,0.42304457527333894,1191.0
721.0,1.7109222102999247e+18,0.4490861618798956,0.4018264840182648,0.3124324324324324,0.5094155050134507,0.634065934065934,0.4558452481076535,1196.0
722.0,1.7109222103099123e+18,0.5195822454308094,0.545662100456621,0.6497297297297298,0.5064808021521154,0.6274725274725275,0.43566021867115223,1194.0
723.0,1.71092221031994e+18,0.47780678851174935,0.4463470319634703,0.39297297297297296,0.5111274150158963,0.6285714285714286,0.4415475189234651,1196.0
724.0,1.7109222103299336e+18,0.4556135770234987,0.4143835616438356,0.34054054054054056,0.4942528735632184,0.6472527472527473,0.4449116904962153,1196.0
725.0,1.710922210339912e+18,0.5091383812010444,0.5388127853881278,0.42702702702702705,0.49816581071166544,0.6406593406593407,0.4785534062237174,1197.0
726.0,1.7109222103499123e+18,0.4595300261096606,0.4018264840182648,0.3362162162162162,0.49327463927610665,0.6120879120879121,0.41379310344827586,1190.0
727.0,1.71092221035992e+18,0.46736292428198434,0.3938356164383562,0.2864864864864865,0.5006113964294449,0.6054945054945055,0.4314550042052145,1192.0
728.0,1.710922210369905e+18,0.4804177545691906,0.4726027397260274,0.44756756756756755,0.49498654927855223,0.6373626373626373,0.45248107653490327,1197.0
729.0,1.7109222103799293e+18,0.4699738903394256,0.3881278538812785,0.34594594594594597,0.4927855221325507,0.5923076923076923,0.4381833473507149,1195.0
730.0,1.7109222103899105e+18,0.48172323759791125,0.3892694063926941,0.24432432432432433,0.5221325507459036,0.6186813186813187,0.4348191757779647,1197.0
731.0,1.710922210399913e+18,0.48172323759791125,0.4246575342465753,0.3302702702702703,0.5020787478601125,0.6318681318681318,0.464255677039529,1195.0
732.0,1.710922210409911e+18,0.4556135770234987,0.3904109589041096,0.30594594594594593,0.5006113964294449,0.6318681318681318,0.4289318755256518,1195.0
733.0,1.710922210419899e+18,0.4765013054830287,0.4520547945205479,0.34702702702702704,0.5152849107361213,0.6461538461538462,0.4449116904962153,1196.0
734.0,1.710922210429909e+18,0.49216710182767626,0.454337899543379,0.3924324324324324,0.49107361213010514,0.5758241758241758,0.39781328847771236,1195.0
735.0,1.710922210439911e+18,0.47389033942558745,0.4200913242009132,0.36702702702702705,0.5015896307165566,0.6681318681318681,0.4592094196804037,1196.0
736.0,1.7109222104499067e+18,0.4425587467362924,0.363013698630137,0.31135135135135134,0.4974321349963316,0.6054945054945055,0.4146341463414634,1194.0
737.0,1.710922210459909e+18,0.45039164490861616,0.3139269406392694,0.26054054054054054,0.49351919784788456,0.610989010989011,0.43566021867115223,1196.0
738.0,1.7109222104699256e+18,0.4725848563968668,0.4269406392694064,0.3286486486486486,0.5050134507214478,0.6417582417582418,0.4348191757779647,1196.0
739.0,1.7109222104798915e+18,0.48433420365535246,0.454337899543379,0.35783783783783785,0.49816581071166544,0.6241758241758242,0.4701429772918419,1197.0
740.0,1.7109222104898767e+18,0.46475195822454307,0.3835616438356164,0.23459459459459459,0.504524333577892,0.6538461538461539,0.44911690496215306,1196.0
741.0,1.7109222104999107e+18,0.46736292428198434,0.4292237442922374,0.36,0.4817803864025434,0.6065934065934065,0.4289318755256518,1192.0
742.0,1.7109222105099067e+18,0.46736292428198434,0.4029680365296804,0.35621621621621624,0.49938860357055515,0.6043956043956044,0.43566021867115223,1195.0
743.0,1.7109222105199137e+18,0.45039164490861616,0.3721461187214612,0.2578378378378378,0.5030569821472243,0.6395604395604395,0.4533221194280908,1195.0
744.0,1.7109222105299128e+18,0.4516971279373368,0.3561643835616438,0.2632432432432432,0.5074590364392272,0.6120879120879121,0.4222035323801514,1194.0
745.0,1.7109222105399068e+18,0.47389033942558745,0.4052511415525114,0.3172972972972973,0.49620934213744194,0.6010989010989011,0.4280908326324643,1194.0
746.0,1.710922210549905e+18,0.4869451697127937,0.4406392694063927,0.43567567567567567,0.5052580092932257,0.667032967032967,0.46846089150546677,1195.0
747.0,1.7109222105599107e+18,0.4908616187989556,0.3972602739726027,0.3075675675675676,0.499877720714111,0.6032967032967033,0.4339781328847771,1194.0
748.0,1.7109222105698668e+18,0.47127937336814624,0.3972602739726027,0.2983783783783784,0.48789435069699194,0.6131868131868132,0.4499579478553406,1194.0
749.0,1.710922210579905e+18,0.48433420365535246,0.3984018264840183,0.3481081081081081,0.5050134507214478,0.6373626373626373,0.4625735912531539,1197.0
750.0,1.710922210589912e+18,0.4856396866840731,0.4098173515981735,0.3881081081081081,0.504524333577892,0.6120879120879121,0.42052144659377627,1195.0
751.0,1.7109222105999068e+18,0.4869451697127937,0.4292237442922374,0.3583783783783784,0.49620934213744194,0.6428571428571429,0.45500420521446594,1197.0
752.0,1.7109222106099702e+18,0.47127937336814624,0.3949771689497717,0.31189189189189187,0.4984103692834434,0.6230769230769231,0.4280908326324643,1193.0
753.0,1.7109222106199186e+18,0.4830287206266319,0.4429223744292237,0.3567567567567568,0.5057471264367817,0.656043956043956,0.4592094196804037,1196.0
754.0,1.7109222106299098e+18,0.4660574412532637,0.3926940639269406,0.28324324324324324,0.4988994864269993,0.6252747252747253,0.4415475189234651,1196.0
755.0,1.7109222106399124e+18,0.5013054830287206,0.478310502283105,0.46324324324324323,0.4937637564196625,0.6461538461538462,0.45164003364171573,1195.0
756.0,1.7109222106499118e+18,0.47911227154047,0.4372146118721461,0.3621621621621622,0.49938860357055515,0.6131868131868132,0.4381833473507149,1194.0
757.0,1.710922210659908e+18,0.47780678851174935,0.386986301369863,0.2745945945945946,0.5025678650036683,0.6208791208791209,0.4087468460891506,1194.0
758.0,1.7109222106698857e+18,0.48825065274151436,0.4143835616438356,0.37405405405405406,0.4986549278552213,0.6175824175824176,0.4373423044575273,1197.0
759.0,1.7109222106799178e+18,0.49738903394255873,0.4942922374429224,0.38594594594594595,0.49620934213744194,0.6208791208791209,0.4432296047098402,1194.0
760.0,1.7109222106899034e+18,0.48433420365535246,0.4680365296803653,0.4291891891891892,0.5086818292981169,0.6461538461538462,0.4634146341463415,1197.0
761.0,1.7109222106999112e+18,0.4608355091383812,0.3801369863013699,0.27945945945945944,0.495720224993886,0.5934065934065934,0.4247266610597141,1194.0
762.0,1.7109222107099151e+18,0.49738903394255873,0.4942922374429224,0.44972972972972974,0.4930300807043287,0.6230769230769231,0.432296047098402,1192.0
763.0,1.710922210719931e+18,0.4621409921671018,0.3732876712328767,0.28702702702702704,0.4930300807043287,0.5813186813186814,0.4314550042052145,1193.0
764.0,1.710922210729923e+18,0.46736292428198434,0.4554794520547945,0.3708108108108108,0.4974321349963316,0.6142857142857143,0.44238856181665265,1196.0
765.0,1.7109222107399148e+18,0.47780678851174935,0.4063926940639269,0.2989189189189189,0.4969430178527757,0.6120879120879121,0.42640874684608915,1194.0
766.0,1.710922210749909e+18,0.4556135770234987,0.3789954337899543,0.27405405405405403,0.5003668378576669,0.6208791208791209,0.4432296047098402,1198.0
767.0,1.710922210759907e+18,0.45039164490861616,0.4269406392694064,0.2594594594594595,0.4991440449987772,0.6098901098901099,0.4163162321278385,1193.0
768.0,1.7109222107699123e+18,0.49216710182767626,0.5091324200913242,0.4205405405405405,0.4991440449987772,0.6318681318681318,0.44911690496215306,1196.0
769.0,1.7109222107799227e+18,0.47127937336814624,0.3995433789954338,0.3281081081081081,0.49620934213744194,0.6142857142857143,0.4373423044575273,1196.0
770.0,1.7109222107899044e+18,0.4869451697127937,0.4292237442922374,0.35783783783783785,0.5062362435803375,0.6241758241758242,0.4432296047098402,1195.0
771.0,1.7109222107999086e+18,0.5078328981723238,0.4440639269406393,0.34486486486486484,0.5152849107361213,0.6516483516483517,0.44575273338940286,1193.0
772.0,1.7109222108099098e+18,0.4595300261096606,0.3835616438356164,0.31891891891891894,0.5023233064318905,0.6450549450549451,0.45500420521446594,1196.0
773.0,1.7109222108199196e+18,0.49738903394255873,0.4817351598173516,0.3691891891891892,0.5055025678650037,0.6505494505494506,0.4482758620689655,1194.0
774.0,1.710922210829912e+18,0.49738903394255873,0.5011415525114156,0.3627027027027027,0.49816581071166544,0.634065934065934,0.4381833473507149,1195.0
775.0,1.710922210839914e+18,0.4621409921671018,0.3995433789954338,0.31405405405405407,0.49351919784788456,0.6175824175824176,0.4289318755256518,1193.0
776.0,1.7109222108499075e+18,0.49477806788511747,0.4920091324200913,0.49783783783783786,0.5113719735876743,0.656043956043956,0.4440706476030278,1196.0
777.0,1.7109222108599066e+18,0.4608355091383812,0.3641552511415525,0.26432432432432434,0.5243335778919052,0.6208791208791209,0.43313708999158956,1192.0
778.0,1.710922210869907e+18,0.46475195822454307,0.410958904109589,0.34378378378378377,0.4986549278552213,0.6241758241758242,0.4314550042052145,1192.0
779.0,1.7109222108799053e+18,0.4869451697127937,0.408675799086758,0.3362162162162162,0.49474199070677427,0.6285714285714286,0.43313708999158956,1193.0
780.0,1.7109222108899072e+18,0.42036553524804177,0.3550228310502283,0.2827027027027027,0.49645390070921985,0.5978021978021978,0.4238856181665265,1193.0
781.0,1.7109222108998625e+18,0.4347258485639687,0.3219178082191781,0.22216216216216217,0.4996331621423331,0.6450549450549451,0.4280908326324643,1192.0
782.0,1.7109222109099118e+18,0.46475195822454307,0.3607305936073059,0.32432432432432434,0.5094155050134507,0.6362637362637362,0.43902439024390244,1194.0
783.0,1.710922210919908e+18,0.4869451697127937,0.3732876712328767,0.28594594594594597,0.4930300807043287,0.6274725274725275,0.4314550042052145,1194.0
784.0,1.7109222109299095e+18,0.45822454308093996,0.3972602739726027,0.3183783783783784,0.5018341892883346,0.6307692307692307,0.4499579478553406,1193.0
785.0,1.7109222109399148e+18,0.46736292428198434,0.4235159817351598,0.31513513513513514,0.4969430178527757,0.6021978021978022,0.42640874684608915,1194.0
786.0,1.710922210949908e+18,0.4360313315926893,0.4223744292237443,0.327027027027027,0.5121056493030081,0.6494505494505495,0.4449116904962153,1194.0
787.0,1.710922210959904e+18,0.5430809399477807,0.4394977168949772,0.31351351351351353,0.48911714355588165,0.6186813186813187,0.45248107653490327,1196.0
788.0,1.7109222109699062e+18,0.4516971279373368,0.3949771689497717,0.36486486486486486,0.4859378821227684,0.6131868131868132,0.41968040370058873,1195.0
789.0,1.7109222109799112e+18,0.5052219321148825,0.478310502283105,0.3816216216216216,0.5062362435803375,0.5956043956043956,0.464255677039529,1196.0
790.0,1.7109222109899233e+18,0.4516971279373368,0.3595890410958904,0.26432432432432434,0.4971875764245537,0.5725274725274725,0.415475189234651,1193.0
791.0,1.7109222109999089e+18,0.4556135770234987,0.3755707762557078,0.3291891891891892,0.5074590364392272,0.656043956043956,0.4558452481076535,1195.0
792.0,1.7109222110099174e+18,0.49477806788511747,0.3812785388127854,0.22,0.5050134507214478,0.6098901098901099,0.43986543313709,1196.0
793.0,1.7109222110199117e+18,0.44778067885117495,0.3995433789954338,0.3324324324324324,0.49107361213010514,0.6197802197802198,0.4255677039529016,1193.0
794.0,1.710922211029879e+18,0.4765013054830287,0.4315068493150685,0.3178378378378378,0.4776228906823184,0.6054945054945055,0.4482758620689655,1197.0
795.0,1.710922211039913e+18,0.4621409921671018,0.3995433789954338,0.38,0.4969430178527757,0.6318681318681318,0.4440706476030278,1193.0
796.0,1.7109222110499154e+18,0.4830287206266319,0.4509132420091324,0.3227027027027027,0.5064808021521154,0.6175824175824176,0.43566021867115223,1195.0
797.0,1.7109222110598994e+18,0.4308093994778068,0.3253424657534247,0.267027027027027,0.4761555392516508,0.5989010989010989,0.42304457527333894,1195.0
798.0,1.7109222110699197e+18,0.5130548302872062,0.4840182648401826,0.5027027027027027,0.5030569821472243,0.6362637362637362,0.4533221194280908,1196.0
799.0,1.7109222110799212e+18,0.4765013054830287,0.3824200913242009,0.23945945945945946,0.49474199070677427,0.5956043956043956,0.4112699747687132,1193.0
800.0,1.710922211089917e+18,0.47127937336814624,0.430365296803653,0.34324324324324323,0.483492296404989,0.5967032967032967,0.43313708999158956,1192.0
801.0,1.7109222110999127e+18,0.45691906005221933,0.3995433789954338,0.35135135135135137,0.495720224993886,0.6010989010989011,0.42977291841883936,1194.0
802.0,1.7109222111099139e+18,0.4830287206266319,0.4212328767123288,0.31891891891891894,0.5047688921496698,0.6230769230769231,0.43650126156433977,1193.0
803.0,1.7109222111199178e+18,0.46866840731070497,0.4394977168949772,0.3762162162162162,0.4986549278552213,0.6142857142857143,0.4449116904962153,1195.0
804.0,1.7109222111299128e+18,0.4608355091383812,0.3550228310502283,0.25513513513513514,0.4888725849841037,0.6065934065934065,0.4255677039529016,1193.0
805.0,1.7109222111399078e+18,0.4621409921671018,0.3344748858447489,0.29621621621621624,0.49351919784788456,0.545054945054945,0.4247266610597141,1192.0
806.0,1.7109222111499405e+18,0.4765013054830287,0.4052511415525114,0.3427027027027027,0.495720224993886,0.6274725274725275,0.4634146341463415,1196.0
807.0,1.7109222111599296e+18,0.47780678851174935,0.4315068493150685,0.3535135135135135,0.5013450721447786,0.6230769230769231,0.4314550042052145,1194.0
808.0,1.7109222111699052e+18,0.4869451697127937,0.4223744292237443,0.33135135135135135,0.5008559550012228,0.6285714285714286,0.4415475189234651,1195.0
809.0,1.7109222111799094e+18,0.47780678851174935,0.4006849315068493,0.3491891891891892,0.5035460992907801,0.6428571428571429,0.4667788057190917,1194.0
810.0,1.7109222111899154e+18,0.45822454308093996,0.3607305936073059,0.2913513513513514,0.49938860357055515,0.6010989010989011,0.4272497897392767,1192.0
811.0,1.7109222111999137e+18,0.4177545691906005,0.3573059360730594,0.27405405405405403,0.4986549278552213,0.6065934065934065,0.43313708999158956,1192.0
812.0,1.7109222112099133e+18,0.4804177545691906,0.3778538812785388,0.2610810810810811,0.5025678650036683,0.6362637362637362,0.44911690496215306,1193.0
813.0,1.7109222112199114e+18,0.47127937336814624,0.363013698630137,0.2632432432432432,0.504035216434336,0.6208791208791209,0.4255677039529016,1191.0
814.0,1.7109222112299187e+18,0.4765013054830287,0.454337899543379,0.4254054054054054,0.5055025678650037,0.6725274725274726,0.4625735912531539,1197.0
815.0,1.7109222112399073e+18,0.4830287206266319,0.3641552511415525,0.30108108108108106,0.5011005135730008,0.6054945054945055,0.4339781328847771,1194.0
816.0,1.71092221124991e+18,0.45822454308093996,0.3755707762557078,0.2648648648648649,0.4984103692834434,0.6164835164835165,0.43986543313709,1196.0
817.0,1.7109222112599035e+18,0.46475195822454307,0.3972602739726027,0.32216216216216215,0.5001222792858889,0.6274725274725275,0.4289318755256518,1193.0
818.0,1.710922211269912e+18,0.42689295039164493,0.3721461187214612,0.32216216216216215,0.48985081927121543,0.6131868131868132,0.4432296047098402,1196.0
819.0,1.7109222112799124e+18,0.46736292428198434,0.4041095890410959,0.3989189189189189,0.499877720714111,0.6197802197802198,0.43566021867115223,1196.0
820.0,1.7109222112899187e+18,0.44778067885117495,0.3812785388127854,0.2897297297297297,0.5025678650036683,0.6208791208791209,0.432296047098402,1193.0
821.0,1.71092221129992e+18,0.5052219321148825,0.5353881278538812,0.5183783783783784,0.5111274150158963,0.6263736263736264,0.471825063078217,1196.0
822.0,1.7109222113098683e+18,0.46475195822454307,0.3767123287671233,0.2724324324324324,0.49033993641477136,0.5923076923076923,0.4222035323801514,1192.0
823.0,1.7109222113199112e+18,0.4869451697127937,0.4212328767123288,0.3232432432432432,0.4979212521398875,0.6274725274725275,0.4415475189234651,1195.0
824.0,1.710922211329908e+18,0.45822454308093996,0.3835616438356164,0.2843243243243243,0.48642699926632427,0.5857142857142857,0.42304457527333894,1191.0
825.0,1.7109222113399063e+18,0.4765013054830287,0.4041095890410959,0.2610810810810811,0.5025678650036683,0.6494505494505495,0.4592094196804037,1197.0
826.0,1.7109222113499105e+18,0.46475195822454307,0.4223744292237443,0.3837837837837838,0.49767669356810956,0.6384615384615384,0.4289318755256518,1194.0
827.0,1.7109222113598684e+18,0.5195822454308094,0.4509132420091324,0.21837837837837837,0.5074590364392272,0.6406593406593407,0.432296047098402,1192.0
828.0,1.710922211369909e+18,0.4725848563968668,0.3812785388127854,0.292972972972973,0.499877720714111,0.656043956043956,0.4499579478553406,1197.0
829.0,1.710922211379914e+18,0.4595300261096606,0.3721461187214612,0.32594594594594595,0.5067253607238934,0.6208791208791209,0.4289318755256518,1191.0
830.0,1.7109222113899356e+18,0.5234986945169713,0.4726027397260274,0.39135135135135135,0.5079481535827831,0.6450549450549451,0.45500420521446594,1193.0
831.0,1.7109222113999196e+18,0.45822454308093996,0.408675799086758,0.34054054054054056,0.5113719735876743,0.6142857142857143,0.4247266610597141,1193.0
832.0,1.7109222114099192e+18,0.4386422976501306,0.430365296803653,0.42162162162162165,0.4996331621423331,0.5461538461538461,0.4188393608074012,1194.0
833.0,1.7109222114199117e+18,0.48825065274151436,0.4406392694063927,0.37189189189189187,0.49474199070677427,0.6373626373626373,0.4592094196804037,1197.0
834.0,1.7109222114299092e+18,0.5300261096605744,0.4726027397260274,0.44432432432432434,0.49229640498899485,0.610989010989011,0.43650126156433977,1197.0
835.0,1.710922211439914e+18,0.4934725848563969,0.4360730593607306,0.4227027027027027,0.4715089263878699,0.6450549450549451,0.4415475189234651,1197.0
836.0,1.7109222114499144e+18,0.4360313315926893,0.3675799086757991,0.2681081081081081,0.4839814135485449,0.6142857142857143,0.4188393608074012,1192.0
837.0,1.7109222114599355e+18,0.46344647519582244,0.3744292237442922,0.24972972972972973,0.4937637564196625,0.6296703296703297,0.4247266610597141,1194.0
838.0,1.7109222114699139e+18,0.4556135770234987,0.384703196347032,0.24486486486486486,0.49816581071166544,0.6428571428571429,0.45500420521446594,1196.0
839.0,1.7109222114799183e+18,0.4464751958224543,0.3881278538812785,0.31027027027027027,0.48985081927121543,0.6054945054945055,0.41379310344827586,1193.0
840.0,1.7109222114899174e+18,0.5104438642297651,0.3824200913242009,0.3037837837837838,0.5013450721447786,0.6175824175824176,0.43313708999158956,1193.0
841.0,1.710922211499927e+18,0.45822454308093996,0.4143835616438356,0.41567567567567565,0.5033015407190022,0.6164835164835165,0.44575273338940286,1195.0
842.0,1.7109222115099034e+18,0.4804177545691906,0.4280821917808219,0.31405405405405407,0.5057471264367817,0.6043956043956044,0.4348191757779647,1193.0
843.0,1.7109222115199089e+18,0.4869451697127937,0.3961187214611872,0.30648648648648646,0.49327463927610665,0.5978021978021978,0.4348191757779647,1196.0
844.0,1.710922211529912e+18,0.4908616187989556,0.3755707762557078,0.28216216216216217,0.48251406211787723,0.6098901098901099,0.4339781328847771,1193.0
845.0,1.7109222115399078e+18,0.5234986945169713,0.4143835616438356,0.3518918918918919,0.49620934213744194,0.6186813186813187,0.4348191757779647,1194.0
846.0,1.7109222115499238e+18,0.4347258485639687,0.3573059360730594,0.2718918918918919,0.49474199070677427,0.6351648351648351,0.456686291000841,1195.0
847.0,1.7109222115599168e+18,0.4699738903394256,0.363013698630137,0.25405405405405407,0.504524333577892,0.6131868131868132,0.4272497897392767,1192.0
848.0,1.7109222115699144e+18,0.4830287206266319,0.3984018264840183,0.28486486486486484,0.5064808021521154,0.6835164835164835,0.4499579478553406,1197.0
849.0,1.7109222115799132e+18,0.4516971279373368,0.4155251141552511,0.3605405405405405,0.5077035950110051,0.6329670329670329,0.4289318755256518,1194.0
850.0,1.7109222115898831e+18,0.4804177545691906,0.3755707762557078,0.2827027027027027,0.5028124235754463,0.6241758241758242,0.44238856181665265,1196.0
851.0,1.7109222115999173e+18,0.47127937336814624,0.384703196347032,0.30864864864864866,0.4988994864269993,0.6274725274725275,0.43313708999158956,1193.0
852.0,1.7109222116099185e+18,0.49869451697127937,0.4611872146118721,0.3881081081081081,0.5023233064318905,0.667032967032967,0.47434819175777965,1197.0
853.0,1.7109222116199027e+18,0.47911227154047,0.4280821917808219,0.34324324324324323,0.5037906578625581,0.5978021978021978,0.3961312026913373,1193.0
854.0,1.7109222116299177e+18,0.489556135770235,0.5102739726027398,0.3956756756756757,0.5074590364392272,0.6780219780219781,0.45248107653490327,1197.0
855.0,1.7109222116399135e+18,0.4556135770234987,0.3778538812785388,0.27675675675675676,0.49767669356810956,0.5923076923076923,0.432296047098402,1192.0
856.0,1.710922211649906e+18,0.4856396866840731,0.4246575342465753,0.38594594594594595,0.5003668378576669,0.6032967032967033,0.4272497897392767,1194.0
857.0,1.7109222116599201e+18,0.4608355091383812,0.3995433789954338,0.3005405405405405,0.5059916850085595,0.6274725274725275,0.4449116904962153,1197.0
858.0,1.710922211669909e+18,0.4869451697127937,0.4509132420091324,0.36864864864864866,0.5162631450232331,0.6065934065934065,0.4095878889823381,1194.0
859.0,1.7109222116799214e+18,0.5391644908616188,0.6187214611872146,0.7086486486486486,0.5064808021521154,0.6296703296703297,0.4802354920100925,1196.0
860.0,1.7109222116899172e+18,0.47911227154047,0.3995433789954338,0.31567567567567567,0.5018341892883346,0.6065934065934065,0.4213624894869638,1194.0
861.0,1.7109222116999155e+18,0.49477806788511747,0.4600456621004566,0.37351351351351353,0.504035216434336,0.6362637362637362,0.4558452481076535,1195.0
862.0,1.710922211709927e+18,0.46344647519582244,0.4611872146118721,0.44432432432432434,0.5113719735876743,0.6538461538461539,0.47098402018502944,1195.0
863.0,1.710922211719931e+18,0.4621409921671018,0.3972602739726027,0.2756756756756757,0.4966984592809978,0.6208791208791209,0.40370058873002523,1195.0
864.0,1.710922211729906e+18,0.4765013054830287,0.3995433789954338,0.312972972972973,0.49620934213744194,0.6307692307692307,0.4314550042052145,1193.0
865.0,1.7109222117399068e+18,0.47911227154047,0.4200913242009132,0.3497297297297297,0.5094155050134507,0.6230769230769231,0.4499579478553406,1197.0
866.0,1.7109222117499072e+18,0.43733681462140994,0.3561643835616438,0.2637837837837838,0.4988994864269993,0.6153846153846154,0.4280908326324643,1191.0
867.0,1.710922211759925e+18,0.49216710182767626,0.4098173515981735,0.33945945945945943,0.4925409635607728,0.5978021978021978,0.4213624894869638,1194.0
868.0,1.7109222117699123e+18,0.4869451697127937,0.4063926940639269,0.31675675675675674,0.5116165321594522,0.6318681318681318,0.4415475189234651,1197.0
869.0,1.71092221177992e+18,0.44778067885117495,0.3881278538812785,0.2810810810810811,0.49400831499144043,0.6175824175824176,0.41968040370058873,1192.0
870.0,1.7109222117899128e+18,0.4856396866840731,0.4063926940639269,0.31027027027027027,0.483492296404989,0.5934065934065934,0.41715727502102606,1192.0
871.0,1.7109222117999058e+18,0.48825065274151436,0.4726027397260274,0.28486486486486484,0.47786744925409635,0.6604395604395604,0.4726661059714045,1195.0
872.0,1.7109222118099226e+18,0.4621409921671018,0.363013698630137,0.21837837837837837,0.49938860357055515,0.5857142857142857,0.40117746005046256,1192.0
873.0,1.7109222118199127e+18,0.4830287206266319,0.3892694063926941,0.26594594594594595,0.5135730007336757,0.6241758241758242,0.4541631623212784,1197.0
874.0,1.7109222118299187e+18,0.5091383812010444,0.408675799086758,0.3545945945945946,0.516507703595011,0.6648351648351648,0.4482758620689655,1196.0
875.0,1.7109222118399055e+18,0.43733681462140994,0.363013698630137,0.3,0.5003668378576669,0.6593406593406593,0.46846089150546677,1196.0
876.0,1.7109222118499064e+18,0.45822454308093996,0.3710045662100457,0.30972972972972973,0.5069699192956714,0.6021978021978022,0.4062237174095879,1192.0
877.0,1.7109222118599063e+18,0.5117493472584856,0.4337899543378995,0.2983783783783784,0.5128393250183418,0.6626373626373626,0.4768713204373423,1195.0
878.0,1.7109222118699075e+18,0.45691906005221933,0.3504566210045662,0.2562162162162162,0.5162631450232331,0.621978021978022,0.4314550042052145,1193.0
879.0,1.7109222118799084e+18,0.5352480417754569,0.4098173515981735,0.28324324324324324,0.520665199315236,0.634065934065934,0.4415475189234651,1196.0
880.0,1.7109222118899402e+18,0.5039164490861618,0.3904109589041096,0.25027027027027027,0.5069699192956714,0.6098901098901099,0.4592094196804037,1197.0
881.0,1.710922211899906e+18,0.5234986945169713,0.408675799086758,0.28162162162162163,0.49620934213744194,0.578021978021978,0.43902439024390244,1195.0
882.0,1.7109222119099057e+18,0.4621409921671018,0.430365296803653,0.3551351351351351,0.5099046221570066,0.6230769230769231,0.4625735912531539,1194.0
883.0,1.7109222119199104e+18,0.4725848563968668,0.3835616438356164,0.3172972972972973,0.4979212521398875,0.634065934065934,0.4381833473507149,1196.0
884.0,1.7109222119299162e+18,0.4516971279373368,0.4052511415525114,0.31351351351351353,0.4979212521398875,0.6120879120879121,0.4314550042052145,1192.0
885.0,1.7109222119399227e+18,0.4804177545691906,0.3926940639269406,0.3216216216216216,0.5020787478601125,0.6230769230769231,0.4381833473507149,1195.0
886.0,1.7109222119499128e+18,0.4869451697127937,0.3926940639269406,0.27405405405405403,0.5003668378576669,0.6175824175824176,0.4314550042052145,1195.0
887.0,1.7109222119599101e+18,0.4934725848563969,0.5308219178082192,0.4572972972972973,0.504524333577892,0.6582417582417582,0.49705634987384356,1194.0
888.0,1.7109222119699108e+18,0.48433420365535246,0.4589041095890411,0.39675675675675676,0.5191978478845684,0.6010989010989011,0.3986543313708999,1191.0
889.0,1.7109222119799112e+18,0.4725848563968668,0.3904109589041096,0.3227027027027027,0.495964783565664,0.6274725274725275,0.4314550042052145,1194.0
890.0,1.710922211989922e+18,0.4804177545691906,0.4406392694063927,0.3237837837837838,0.4944974321349963,0.6901098901098901,0.47098402018502944,1196.0
891.0,1.7109222119999084e+18,0.5104438642297651,0.5011415525114156,0.5124324324324324,0.5055025678650037,0.6593406593406593,0.4314550042052145,1194.0
892.0,1.7109222120099136e+18,0.47780678851174935,0.4394977168949772,0.31675675675675674,0.4988994864269993,0.6197802197802198,0.43986543313709,1196.0
893.0,1.7109222120199145e+18,0.45691906005221933,0.4349315068493151,0.3389189189189189,0.5094155050134507,0.654945054945055,0.4381833473507149,1196.0
894.0,1.710922212029914e+18,0.49738903394255873,0.478310502283105,0.4627027027027027,0.5116165321594522,0.6296703296703297,0.42052144659377627,1193.0
895.0,1.7109222120399265e+18,0.4255874673629243,0.3584474885844749,0.31405405405405407,0.5103937393005625,0.6373626373626373,0.42052144659377627,1196.0
896.0,1.710922212049913e+18,0.5130548302872062,0.5057077625570776,0.3837837837837838,0.512350207874786,0.6296703296703297,0.4507989907485282,1196.0
897.0,1.710922212059912e+18,0.4804177545691906,0.3595890410958904,0.21945945945945947,0.5059916850085595,0.6120879120879121,0.42304457527333894,1193.0
898.0,1.7109222120699195e+18,0.4765013054830287,0.4006849315068493,0.3232432432432432,0.4871606749816581,0.6065934065934065,0.43566021867115223,1196.0
899.0,1.7109222120799163e+18,0.45822454308093996,0.3744292237442922,0.2772972972972973,0.5145512350207875,0.6,0.4499579478553406,1196.0
900.0,1.7109222120899223e+18,0.4595300261096606,0.3995433789954338,0.3,0.48642699926632427,0.5791208791208792,0.40117746005046256,1193.0
901.0,1.7109222120999158e+18,0.46866840731070497,0.4726027397260274,0.412972972972973,0.5059916850085595,0.6626373626373626,0.45248107653490327,1195.0
902.0,1.710922212109914e+18,0.4556135770234987,0.3778538812785388,0.2891891891891892,0.49767669356810956,0.6186813186813187,0.41968040370058873,1192.0
903.0,1.7109222121199158e+18,0.4765013054830287,0.4315068493150685,0.4254054054054054,0.5074590364392272,0.6428571428571429,0.4306139613120269,1192.0
904.0,1.710922212129926e+18,0.489556135770235,0.478310502283105,0.4221621621621622,0.49767669356810956,0.6637362637362637,0.47434819175777965,1196.0
905.0,1.7109222121399247e+18,0.44386422976501305,0.3595890410958904,0.28486486486486484,0.5018341892883346,0.5923076923076923,0.4146341463414634,1192.0
906.0,1.7109222121499146e+18,0.47389033942558745,0.386986301369863,0.32216216216216215,0.5064808021521154,0.6384615384615384,0.4507989907485282,1197.0
907.0,1.7109222121599263e+18,0.48433420365535246,0.4178082191780822,0.3281081081081081,0.5008559550012228,0.6065934065934065,0.4095878889823381,1194.0
908.0,1.710922212169902e+18,0.48172323759791125,0.4931506849315068,0.4827027027027027,0.5172413793103449,0.6626373626373626,0.4575273338940286,1195.0
909.0,1.710922212179922e+18,0.43994778067885115,0.341324200913242,0.26216216216216215,0.5121056493030081,0.567032967032967,0.4314550042052145,1193.0
910.0,1.71092221218992e+18,0.48172323759791125,0.3755707762557078,0.2724324324324324,0.4969430178527757,0.6417582417582418,0.45248107653490327,1193.0
911.0,1.7109222121999204e+18,0.47389033942558745,0.3915525114155251,0.2918918918918919,0.49107361213010514,0.6274725274725275,0.43902439024390244,1195.0
912.0,1.7109222122099192e+18,0.45039164490861616,0.3835616438356164,0.2897297297297297,0.47346539496209344,0.5637362637362637,0.3860386879730866,1194.0
913.0,1.7109222122199212e+18,0.5091383812010444,0.408675799086758,0.31189189189189187,0.4925409635607728,0.6,0.48696383515559294,1197.0
914.0,1.7109222122299057e+18,0.46344647519582244,0.4452054794520548,0.3254054054054054,0.5015896307165566,0.6021978021978022,0.4146341463414634,1192.0
915.0,1.7109222122399227e+18,0.5182767624020888,0.454337899543379,0.3827027027027027,0.5201760821716801,0.6582417582417582,0.4878048780487805,1196.0
916.0,1.7109222122499197e+18,0.4621409921671018,0.3493150684931507,0.2464864864864865,0.5001222792858889,0.6373626373626373,0.4482758620689655,1195.0
917.0,1.710922212259924e+18,0.4451697127937337,0.3835616438356164,0.3227027027027027,0.48936170212765956,0.6087912087912087,0.42304457527333894,1193.0
918.0,1.7109222122699052e+18,0.47911227154047,0.4406392694063927,0.46,0.49474199070677427,0.5483516483516484,0.4449116904962153,1196.0
919.0,1.710922212279932e+18,0.45691906005221933,0.3824200913242009,0.28594594594594597,0.5111274150158963,0.6285714285714286,0.44911690496215306,1195.0
920.0,1.7109222122899374e+18,0.4699738903394256,0.4178082191780822,0.3708108108108108,0.5008559550012228,0.6164835164835165,0.4222035323801514,1192.0
921.0,1.7109222122998986e+18,0.45822454308093996,0.363013698630137,0.20108108108108108,0.5033015407190022,0.6406593406593407,0.447434819175778,1197.0
922.0,1.710922212309926e+18,0.47780678851174935,0.3972602739726027,0.2827027027027027,0.495720224993886,0.5879120879120879,0.41715727502102606,1193.0
923.0,1.710922212319899e+18,0.4765013054830287,0.4018264840182648,0.28324324324324324,0.48813890926876985,0.6241758241758242,0.44238856181665265,1196.0
924.0,1.7109222123299087e+18,0.4725848563968668,0.4657534246575342,0.4448648648648649,0.5094155050134507,0.6010989010989011,0.3986543313708999,1192.0
925.0,1.7109222123399324e+18,0.4934725848563969,0.454337899543379,0.4010810810810811,0.5055025678650037,0.6846153846153846,0.5088309503784693,1197.0
926.0,1.7109222123499284e+18,0.47127937336814624,0.430365296803653,0.34486486486486484,0.499877720714111,0.5934065934065934,0.4053826745164003,1192.0
927.0,1.7109222123599084e+18,0.49869451697127937,0.5091324200913242,0.4243243243243243,0.5008559550012228,0.6494505494505495,0.4953742640874685,1198.0
928.0,1.7109222123699057e+18,0.4725848563968668,0.3972602739726027,0.3027027027027027,0.5069699192956714,0.6032967032967033,0.415475189234651,1192.0
929.0,1.7109222123799288e+18,0.44386422976501305,0.386986301369863,0.30486486486486486,0.5006113964294449,0.6098901098901099,0.4247266610597141,1192.0
930.0,1.7109222123899484e+18,0.46866840731070497,0.4406392694063927,0.3816216216216216,0.5172413793103449,0.6461538461538462,0.45164003364171573,1195.0
931.0,1.7109222123999101e+18,0.4516971279373368,0.3538812785388128,0.2454054054054054,0.5033015407190022,0.6186813186813187,0.4339781328847771,1194.0
932.0,1.7109222124099098e+18,0.48433420365535246,0.4554794520547945,0.3881081081081081,0.495720224993886,0.5736263736263736,0.4314550042052145,1193.0
933.0,1.7109222124199066e+18,0.5091383812010444,0.3299086757990868,0.15027027027027026,0.5020787478601125,0.6472527472527473,0.44238856181665265,1195.0
934.0,1.7109222124299136e+18,0.46866840731070497,0.3744292237442922,0.3016216216216216,0.49523110785033014,0.6043956043956044,0.40370058873002523,1194.0
935.0,1.7109222124399163e+18,0.4804177545691906,0.4280821917808219,0.3345945945945946,0.5006113964294449,0.6,0.4306139613120269,1192.0
936.0,1.710922212449908e+18,0.44386422976501305,0.4257990867579909,0.4010810810810811,0.5011005135730008,0.6054945054945055,0.44911690496215306,1199.0
937.0,1.7109222124599165e+18,0.4516971279373368,0.4052511415525114,0.3264864864864865,0.5150403521643434,0.6307692307692307,0.4289318755256518,1194.0
938.0,1.7109222124699167e+18,0.5117493472584856,0.4292237442922374,0.34162162162162163,0.5018341892883346,0.6043956043956044,0.4146341463414634,1196.0
939.0,1.7109222124799178e+18,0.49869451697127937,0.4235159817351598,0.33675675675675676,0.5179750550256786,0.654945054945055,0.4751892346509672,1195.0
940.0,1.710922212489918e+18,0.48172323759791125,0.3949771689497717,0.32216216216216215,0.5037906578625581,0.6142857142857143,0.4213624894869638,1191.0
941.0,1.7109222124999355e+18,0.46344647519582244,0.4189497716894977,0.3308108108108108,0.5030569821472243,0.6230769230769231,0.43566021867115223,1196.0
942.0,1.71092221250994e+18,0.48172323759791125,0.3995433789954338,0.3281081081081081,0.5145512350207875,0.6197802197802198,0.44911690496215306,1192.0
943.0,1.7109222125199155e+18,0.49869451697127937,0.4098173515981735,0.3254054054054054,0.5089263878698949,0.6175824175824176,0.4280908326324643,1192.0
944.0,1.7109222125299144e+18,0.48172323759791125,0.4223744292237443,0.3389189189189189,0.5250672536072389,0.656043956043956,0.48359966358284273,1195.0
945.0,1.7109222125399153e+18,0.4556135770234987,0.4235159817351598,0.372972972972973,0.49767669356810956,0.5956043956043956,0.4188393608074012,1192.0
946.0,1.7109222125499164e+18,0.46475195822454307,0.3995433789954338,0.27405405405405403,0.5187087307410124,0.6252747252747253,0.42640874684608915,1192.0
947.0,1.7109222125599096e+18,0.46344647519582244,0.4554794520547945,0.34594594594594597,0.5037906578625581,0.6197802197802198,0.432296047098402,1192.0
948.0,1.7109222125699072e+18,0.48825065274151436,0.4372146118721461,0.3308108108108108,0.48202494497432136,0.6153846153846154,0.4381833473507149,1194.0
949.0,1.7109222125799112e+18,0.46344647519582244,0.4041095890410959,0.30486486486486486,0.5074590364392272,0.6142857142857143,0.4222035323801514,1192.0
950.0,1.7109222125899151e+18,0.5130548302872062,0.4155251141552511,0.33945945945945943,0.5067253607238934,0.6406593406593407,0.4625735912531539,1194.0
951.0,1.7109222125999227e+18,0.5195822454308094,0.4132420091324201,0.31513513513513514,0.5089263878698949,0.6186813186813187,0.42304457527333894,1191.0
952.0,1.7109222126099098e+18,0.42297650130548303,0.4178082191780822,0.33945945945945943,0.5015896307165566,0.6175824175824176,0.4592094196804037,1197.0
953.0,1.710922212619884e+18,0.47911227154047,0.3926940639269406,0.3481081081081081,0.5172413793103449,0.5989010989010989,0.4020185029436501,1192.0
954.0,1.7109222126299082e+18,0.47389033942558745,0.3732876712328767,0.33945945945945943,0.5140621178772316,0.6615384615384615,0.44911690496215306,1197.0
955.0,1.710922212639909e+18,0.46866840731070497,0.3299086757990868,0.21027027027027026,0.5057471264367817,0.634065934065934,0.4381833473507149,1196.0
956.0,1.710922212649915e+18,0.4660574412532637,0.4075342465753425,0.34594594594594597,0.499877720714111,0.6065934065934065,0.4306139613120269,1194.0
957.0,1.7109222126599137e+18,0.45822454308093996,0.4246575342465753,0.3075675675675676,0.4913181707018831,0.6252747252747253,0.4507989907485282,1193.0
958.0,1.7109222126699082e+18,0.5130548302872062,0.4646118721461187,0.38216216216216214,0.48226950354609927,0.5791208791208792,0.4415475189234651,1196.0
959.0,1.7109222126799135e+18,0.46475195822454307,0.3995433789954338,0.3091891891891892,0.49400831499144043,0.6351648351648351,0.4381833473507149,1193.0
960.0,1.7109222126899105e+18,0.5039164490861618,0.432648401826484,0.34324324324324323,0.5011005135730008,0.6252747252747253,0.4339781328847771,1193.0
961.0,1.7109222126998917e+18,0.47911227154047,0.3904109589041096,0.2518918918918919,0.5079481535827831,0.6461538461538462,0.4465937762825904,1196.0
962.0,1.7109222127099108e+18,0.4386422976501306,0.4029680365296804,0.30486486486486486,0.4971875764245537,0.6120879120879121,0.41968040370058873,1189.0
963.0,1.7109222127199127e+18,0.46475195822454307,0.4463470319634703,0.32756756756756755,0.5047688921496698,0.6296703296703297,0.42640874684608915,1193.0
964.0,1.710922212729909e+18,0.4425587467362924,0.3664383561643836,0.28594594594594597,0.5047688921496698,0.6120879120879121,0.4289318755256518,1193.0
965.0,1.7109222127399084e+18,0.4830287206266319,0.4269406392694064,0.352972972972973,0.5013450721447786,0.6318681318681318,0.44911690496215306,1195.0
966.0,1.7109222127499156e+18,0.5574412532637075,0.4840182648401826,0.36486486486486486,0.5218879921741257,0.6571428571428571,0.4592094196804037,1196.0
967.0,1.710922212759912e+18,0.4725848563968668,0.4189497716894977,0.3345945945945946,0.49327463927610665,0.621978021978022,0.45164003364171573,1196.0
968.0,1.710922212769909e+18,0.46475195822454307,0.4406392694063927,0.33135135135135135,0.5001222792858889,0.6274725274725275,0.432296047098402,1193.0
969.0,1.7109222127799096e+18,0.45039164490861616,0.4474885844748858,0.41621621621621624,0.4988994864269993,0.6274725274725275,0.42977291841883936,1193.0
970.0,1.710922212789872e+18,0.48172323759791125,0.3904109589041096,0.3286486486486486,0.49082905355832723,0.5769230769230769,0.4222035323801514,1195.0
971.0,1.710922212799906e+18,0.47780678851174935,0.4554794520547945,0.38594594594594595,0.49474199070677427,0.6362637362637362,0.4415475189234651,1195.0
972.0,1.710922212809912e+18,0.4765013054830287,0.3789954337899543,0.2735135135135135,0.5064808021521154,0.6098901098901099,0.45248107653490327,1197.0
973.0,1.7109222128199068e+18,0.45039164490861616,0.386986301369863,0.31513513513513514,0.5096600635852286,0.6065934065934065,0.41968040370058873,1192.0
974.0,1.7109222128299095e+18,0.4765013054830287,0.4132420091324201,0.31945945945945947,0.49938860357055515,0.6142857142857143,0.4280908326324643,1193.0
975.0,1.7109222128399137e+18,0.47911227154047,0.4006849315068493,0.2810810810810811,0.5084372707263389,0.6395604395604395,0.4507989907485282,1196.0
976.0,1.710922212849911e+18,0.47780678851174935,0.4360730593607306,0.3989189189189189,0.491562729273661,0.5659340659340659,0.4053826745164003,1193.0
977.0,1.710922212859912e+18,0.46475195822454307,0.3858447488584475,0.3286486486486486,0.48985081927121543,0.5923076923076923,0.4306139613120269,1194.0
978.0,1.7109222128699095e+18,0.4804177545691906,0.5136986301369864,0.4243243243243243,0.5030569821472243,0.6362637362637362,0.45248107653490327,1195.0
979.0,1.710922212879938e+18,0.45691906005221933,0.3949771689497717,0.3016216216216216,0.4702861335289802,0.5747252747252747,0.4146341463414634,1194.0
980.0,1.7109222128899182e+18,0.5234986945169713,0.5981735159817352,0.6702702702702703,0.5155294693078992,0.6758241758241759,0.4819175777964676,1196.0
981.0,1.7109222128999122e+18,0.4412532637075718,0.3721461187214612,0.30594594594594593,0.5133284421618978,0.6197802197802198,0.41715727502102606,1193.0
982.0,1.7109222129099154e+18,0.4595300261096606,0.430365296803653,0.3481081081081081,0.5118610907312301,0.6582417582417582,0.45500420521446594,1194.0
983.0,1.7109222129199094e+18,0.4765013054830287,0.4223744292237443,0.32,0.5067253607238934,0.6527472527472528,0.4348191757779647,1196.0
984.0,1.710922212929911e+18,0.46475195822454307,0.3881278538812785,0.412972972972973,0.48789435069699194,0.6417582417582418,0.45500420521446594,1196.0
985.0,1.710922212939909e+18,0.4308093994778068,0.3527397260273973,0.2648648648648649,0.4773783321105405,0.6131868131868132,0.407905803195963,1193.0
986.0,1.7109222129499062e+18,0.48825065274151436,0.4657534246575342,0.39675675675675676,0.4844705306921008,0.6076923076923076,0.4289318755256518,1192.0
987.0,1.7109222129599135e+18,0.47127937336814624,0.3892694063926941,0.38594594594594595,0.4871606749816581,0.6142857142857143,0.4575273338940286,1197.0
988.0,1.7109222129699087e+18,0.4751958224543081,0.3881278538812785,0.2913513513513514,0.49229640498899485,0.6010989010989011,0.4280908326324643,1195.0
989.0,1.7109222129799094e+18,0.45039164490861616,0.3801369863013699,0.30594594594594593,0.48813890926876985,0.6395604395604395,0.44575273338940286,1196.0
990.0,1.710922212989913e+18,0.5221932114882507,0.4269406392694064,0.3621621621621622,0.49205184641721694,0.6142857142857143,0.44238856181665265,1195.0
991.0,1.7109222129999089e+18,0.4412532637075718,0.3984018264840183,0.29027027027027025,0.4732208363903155,0.6274725274725275,0.415475189234651,1193.0
992.0,1.7109222130099172e+18,0.5039164490861618,0.4018264840182648,0.28216216216216217,0.48495964783565665,0.6098901098901099,0.4280908326324643,1193.0
993.0,1.71092221301991e+18,0.45691906005221933,0.3789954337899543,0.3075675675675676,0.5035460992907801,0.6384615384615384,0.4667788057190917,1198.0
994.0,1.7109222130299075e+18,0.47127937336814624,0.4098173515981735,0.34486486486486484,0.5003668378576669,0.6186813186813187,0.4314550042052145,1193.0
995.0,1.710922213039909e+18,0.48172323759791125,0.4063926940639269,0.28324324324324324,0.5050134507214478,0.589010989010989,0.45248107653490327,1195.0
996.0,1.7109222130499151e+18,0.4464751958224543,0.384703196347032,0.3005405405405405,0.5015896307165566,0.621978021978022,0.4432296047098402,1194.0
997.0,1.7109222130599258e+18,0.47389033942558745,0.4726027397260274,0.4643243243243243,0.504524333577892,0.6395604395604395,0.45248107653490327,1196.0
998.0,1.7109222130699108e+18,0.4425587467362924,0.3595890410958904,0.252972972972973,0.46515040352164344,0.5758241758241758,0.4247266610597141,1194.0
999.0,1.7109222130799104e+18,0.46475195822454307,0.3767123287671233,0.28864864864864864,0.4930300807043287,0.6241758241758242,0.4348191757779647,1196.0
1000.0,1.7109222130899333e+18,0.49477806788511747,0.4223744292237443,0.2724324324324324,0.4937637564196625,0.610989010989011,0.4314550042052145,1192.0
